time(s),ankle_angle(deg),ankle_velocity(deg/s),body_com_x(m),body_com_y(m),body_com_z(m)
0.000000,0.572958,-8.193296,0.065942,0.000000,0.972103
0.000500,0.566571,-12.773089,0.065942,0.000000,0.972103
0.001000,0.560335,-12.472062,0.066007,0.000000,0.972101
0.001500,0.554244,-12.182098,0.066072,0.000000,0.972099
0.002000,0.548293,-11.902881,0.066137,0.000000,0.972098
0.002500,0.542476,-11.634104,0.066202,0.000000,0.972096
0.003000,0.536788,-11.375465,0.066267,0.000000,0.972094
0.003500,0.531225,-11.126669,0.066332,0.000000,0.972091
0.004000,0.525781,-10.887427,0.066397,0.000000,0.972089
0.004500,0.520452,-10.657458,0.066462,0.000000,0.972087
0.005000,0.515234,-10.436486,0.066527,0.000000,0.972085
0.005500,0.510122,-10.224242,0.066591,0.000000,0.972082
0.006000,0.505112,-10.020463,0.066656,0.000000,0.972080
0.006500,0.500199,-9.824892,0.066721,0.000000,0.972077
0.007000,0.495380,-9.637278,0.066786,0.000000,0.972075
0.007500,0.490652,-9.457376,0.066850,0.000000,0.972072
0.008000,0.486009,-9.284947,0.066915,0.000000,0.972070
0.008500,0.481449,-9.119758,0.066980,0.000000,0.972067
0.009000,0.476969,-8.961579,0.067044,0.000000,0.972065
0.009500,0.472564,-8.810190,0.067109,0.000000,0.972062
0.010000,0.468231,-8.665373,0.067174,0.000000,0.972059
0.010500,0.463967,-8.526916,0.067238,0.000000,0.972057
0.011000,0.459770,-8.394613,0.067303,0.000000,0.972054
0.011500,0.455636,-8.268263,0.067367,0.000000,0.972051
0.012000,0.451562,-8.147670,0.067431,0.000000,0.972049
0.012500,0.447546,-8.032641,0.067496,0.000000,0.972046
0.013000,0.443584,-7.922992,0.067560,0.000000,0.972043
0.013500,0.439675,-7.818540,0.067625,0.000000,0.972041
0.014000,0.435816,-7.719108,0.067689,0.000000,0.972038
0.014500,0.432003,-7.624525,0.067753,0.000000,0.972036
0.015000,0.428236,-7.534622,0.067818,0.000000,0.972033
0.015500,0.424511,-7.449237,0.067882,0.000000,0.972030
0.016000,0.420827,-7.368209,0.067946,0.000000,0.972028
0.016500,0.417182,-7.291386,0.068010,0.000000,0.972025
0.017000,0.413572,-7.218615,0.068074,0.000000,0.972023
0.017500,0.409997,-7.149751,0.068138,0.000000,0.972020
0.018000,0.406455,-7.084652,0.068202,0.000000,0.972018
0.018500,0.402943,-7.023178,0.068266,0.000000,0.972015
0.019000,0.399461,-6.965196,0.068330,0.000000,0.972013
0.019500,0.396006,-6.910575,0.068394,0.000000,0.972011
0.020000,0.392576,-6.859187,0.068458,0.000000,0.972008
0.020500,0.389170,-6.810909,0.068522,0.000000,0.972006
0.021000,0.385788,-6.765621,0.068586,0.000000,0.972004
0.021500,0.382426,-6.723206,0.068650,0.000000,0.972001
0.022000,0.379084,-6.683552,0.068714,0.000000,0.971999
0.022500,0.375761,-6.646549,0.068778,0.000000,0.971997
0.023000,0.372455,-6.612091,0.068841,0.000000,0.971995
0.023500,0.369165,-6.580073,0.068905,0.000000,0.971993
0.024000,0.365890,-6.550395,0.068969,0.000000,0.971991
0.024500,0.362628,-6.522961,0.069032,0.000000,0.971989
0.025000,0.359379,-6.497676,0.069096,0.000000,0.971987
0.025500,0.356142,-6.474449,0.069160,0.000000,0.971985
0.026000,0.352916,-6.453192,0.069223,0.000000,0.971983
0.026500,0.349699,-6.433817,0.069287,0.000000,0.971981
0.027000,0.346491,-6.416243,0.069350,0.000000,0.971979
0.027500,0.343290,-6.400388,0.069413,0.000000,0.971977
0.028000,0.340097,-6.386176,0.069477,0.000000,0.971975
0.028500,0.336911,-6.373530,0.069540,0.000000,0.971973
0.029000,0.333729,-6.362377,0.069604,0.000000,0.971972
0.029500,0.330553,-6.352647,0.069667,0.000000,0.971970
0.030000,0.327381,-6.344272,0.069730,0.000000,0.971968
0.030500,0.324212,-6.337185,0.069793,0.000000,0.971966
0.031000,0.321047,-6.331323,0.069856,0.000000,0.971965
0.031500,0.317883,-6.326624,0.069920,0.000000,0.971963
0.032000,0.314722,-6.323028,0.069983,0.000000,0.971962
0.032500,0.311562,-6.320478,0.070046,0.000000,0.971960
0.033000,0.308402,-6.318919,0.070109,0.000000,0.971959
0.033500,0.305243,-6.318296,0.070172,0.000000,0.971957
0.034000,0.302084,-6.318558,0.070235,0.000000,0.971956
0.034500,0.298924,-6.319655,0.070298,0.000000,0.971954
0.035000,0.295763,-6.321539,0.070361,0.000000,0.971953
0.035500,0.292601,-6.324164,0.070423,0.000000,0.971951
0.036000,0.289437,-6.327484,0.070486,0.000000,0.971950
0.036500,0.286272,-6.331456,0.070549,0.000000,0.971949
0.037000,0.283104,-6.336040,0.070612,0.000000,0.971947
0.037500,0.279933,-6.341194,0.070674,0.000000,0.971946
0.038000,0.276759,-6.346882,0.070737,0.000000,0.971945
0.038500,0.273583,-6.353065,0.070800,0.000000,0.971944
0.039000,0.270403,-6.359708,0.070862,0.000000,0.971943
0.039500,0.267220,-6.366777,0.070925,0.000000,0.971941
0.040000,0.264033,-6.374239,0.070987,0.000000,0.971940
0.040500,0.260842,-6.382062,0.071050,0.000000,0.971939
0.041000,0.257646,-6.390217,0.071112,0.000000,0.971938
0.041500,0.254447,-6.398674,0.071174,0.000000,0.971937
0.042000,0.251243,-6.407404,0.071237,0.000000,0.971936
0.042500,0.248035,-6.416383,0.071299,0.000000,0.971935
0.043000,0.244822,-6.425583,0.071361,0.000000,0.971934
0.043500,0.241605,-6.434980,0.071423,0.000000,0.971933
0.044000,0.238383,-6.444551,0.071486,0.000000,0.971932
0.044500,0.235156,-6.454273,0.071548,0.000000,0.971931
0.045000,0.231923,-6.464125,0.071610,0.000000,0.971930
0.045500,0.228686,-6.474086,0.071672,0.000000,0.971929
0.046000,0.225444,-6.484137,0.071734,0.000000,0.971929
0.046500,0.222197,-6.494259,0.071796,0.000000,0.971928
0.047000,0.218945,-6.504433,0.071858,0.000000,0.971927
0.047500,0.215688,-6.514643,0.071920,0.000000,0.971926
0.048000,0.212425,-6.524873,0.071981,0.000000,0.971925
0.048500,0.209158,-6.535107,0.072043,0.000000,0.971925
0.049000,0.205885,-6.545331,0.072105,0.000000,0.971924
0.049500,0.202607,-6.555530,0.072167,0.000000,0.971923
0.050000,0.199324,-6.565691,0.072228,0.000000,0.971922
0.050500,0.196036,-6.575802,0.072290,0.000000,0.971922
0.051000,0.192744,-6.585850,0.072351,0.000000,0.971921
0.051500,0.189446,-6.595825,0.072413,0.000000,0.971920
0.052000,0.186143,-6.605716,0.072474,0.000000,0.971920
0.052500,0.182835,-6.615512,0.072536,0.000000,0.971919
0.053000,0.179522,-6.625204,0.072597,0.000000,0.971918
0.053500,0.176205,-6.634783,0.072659,0.000000,0.971918
0.054000,0.172883,-6.644241,0.072720,0.000000,0.971917
0.054500,0.169556,-6.653569,0.072781,0.000000,0.971917
0.055000,0.166225,-6.662761,0.072842,0.000000,0.971916
0.055500,0.162889,-6.671808,0.072904,0.000000,0.971915
0.056000,0.159549,-6.680706,0.072965,0.000000,0.971915
0.056500,0.156204,-6.689446,0.073026,0.000000,0.971914
0.057000,0.152855,-6.698025,0.073087,0.000000,0.971914
0.057500,0.149502,-6.706436,0.073148,0.000000,0.971913
0.058000,0.146144,-6.714675,0.073209,0.000000,0.971913
0.058500,0.142783,-6.722737,0.073270,0.000000,0.971912
0.059000,0.139418,-6.730618,0.073330,0.000000,0.971912
0.059500,0.136048,-6.738314,0.073391,0.000000,0.971911
0.060000,0.132675,-6.745822,0.073452,0.000000,0.971911
0.060500,0.129299,-6.753139,0.073513,0.000000,0.971910
0.061000,0.125919,-6.760261,0.073573,0.000000,0.971910
0.061500,0.122535,-6.767186,0.073634,0.000000,0.971910
0.062000,0.119148,-6.773911,0.073694,0.000000,0.971909
0.062500,0.115758,-6.780436,0.073755,0.000000,0.971909
0.063000,0.112365,-6.786757,0.073815,0.000000,0.971908
0.063500,0.108968,-6.792874,0.073876,0.000000,0.971908
0.064000,0.105569,-6.798785,0.073936,0.000000,0.971907
0.064500,0.102167,-6.804488,0.073997,0.000000,0.971907
0.065000,0.098762,-6.809984,0.074057,0.000000,0.971907
0.065500,0.095354,-6.815271,0.074117,0.000000,0.971906
0.066000,0.091944,-6.820349,0.074177,0.000000,0.971906
0.066500,0.088531,-6.825218,0.074237,0.000000,0.971906
0.067000,0.085116,-6.829877,0.074297,0.000000,0.971905
0.067500,0.081699,-6.834326,0.074357,0.000000,0.971905
0.068000,0.078280,-6.838566,0.074417,0.000000,0.971904
0.068500,0.074858,-6.842597,0.074477,0.000000,0.971904
0.069000,0.071435,-6.846420,0.074537,0.000000,0.971904
0.069500,0.068010,-6.850034,0.074597,0.000000,0.971903
0.070000,0.064584,-6.853441,0.074657,0.000000,0.971903
0.070500,0.061155,-6.856642,0.074716,0.000000,0.971903
0.071000,0.057725,-6.859637,0.074776,0.000000,0.971902
0.071500,0.054294,-6.862428,0.074836,0.000000,0.971902
0.072000,0.050862,-6.865016,0.074895,0.000000,0.971902
0.072500,0.047428,-6.867402,0.074955,0.000000,0.971901
0.073000,0.043993,-6.869587,0.075014,0.000000,0.971901
0.073500,0.040557,-6.871572,0.075074,0.000000,0.971901
0.074000,0.037121,-6.873361,0.075133,0.000000,0.971900
0.074500,0.033683,-6.874953,0.075192,0.000000,0.971900
0.075000,0.030245,-6.876350,0.075252,0.000000,0.971900
0.075500,0.026806,-6.877555,0.075311,0.000000,0.971900
0.076000,0.023367,-6.878568,0.075370,0.000000,0.971899
0.076500,0.019927,-6.879393,0.075429,0.000000,0.971899
0.077000,0.016487,-6.880030,0.075488,0.000000,0.971899
0.077500,0.013047,-6.880481,0.075547,0.000000,0.971898
0.078000,0.009607,-6.880749,0.075606,0.000000,0.971898
0.078500,0.006166,-6.880836,0.075665,0.000000,0.971898
0.079000,0.002726,-6.880742,0.075724,0.000000,0.971897
0.079500,-0.000714,-6.880472,0.075782,0.000000,0.971897
0.080000,-0.004154,-6.880026,0.075841,0.000000,0.971897
0.080500,-0.007594,-6.879406,0.075900,0.000000,0.971897
0.081000,-0.011033,-6.878616,0.075958,0.000000,0.971896
0.081500,-0.014472,-6.877656,0.076017,0.000000,0.971896
0.082000,-0.017910,-6.876529,0.076075,0.000000,0.971896
0.082500,-0.021348,-6.875238,0.076134,0.000000,0.971895
0.083000,-0.024785,-6.873783,0.076192,0.000000,0.971895
0.083500,-0.028221,-6.872169,0.076250,0.000000,0.971895
0.084000,-0.031656,-6.870396,0.076309,0.000000,0.971895
0.084500,-0.035091,-6.868467,0.076367,0.000000,0.971894
0.085000,-0.038524,-6.866384,0.076425,0.000000,0.971894
0.085500,-0.041956,-6.864150,0.076483,0.000000,0.971894
0.086000,-0.045387,-6.861765,0.076541,0.000000,0.971893
0.086500,-0.048816,-6.859234,0.076599,0.000000,0.971893
0.087000,-0.052245,-6.856557,0.076657,0.000000,0.971893
0.087500,-0.055671,-6.853738,0.076715,0.000000,0.971893
0.088000,-0.059097,-6.850777,0.076773,0.000000,0.971892
0.088500,-0.062521,-6.847678,0.076831,0.000000,0.971892
0.089000,-0.065943,-6.844442,0.076888,0.000000,0.971892
0.089500,-0.069363,-6.841071,0.076946,0.000000,0.971891
0.090000,-0.072782,-6.837569,0.077004,0.000000,0.971891
0.090500,-0.076199,-6.833936,0.077061,0.000000,0.971891
0.091000,-0.079614,-6.830174,0.077119,0.000000,0.971890
0.091500,-0.083027,-6.826287,0.077176,0.000000,0.971890
0.092000,-0.086439,-6.822276,0.077233,0.000000,0.971890
0.092500,-0.089848,-6.818142,0.077291,0.000000,0.971890
0.093000,-0.093255,-6.813888,0.077348,0.000000,0.971889
0.093500,-0.096659,-6.809517,0.077405,0.000000,0.971889
0.094000,-0.100062,-6.805029,0.077462,0.000000,0.971889
0.094500,-0.103462,-6.800427,0.077519,0.000000,0.971888
0.095000,-0.106860,-6.795712,0.077576,0.000000,0.971888
0.095500,-0.110255,-6.790887,0.077633,0.000000,0.971888
0.096000,-0.113648,-6.785954,0.077690,0.000000,0.971887
0.096500,-0.117039,-6.780914,0.077747,0.000000,0.971887
0.097000,-0.120427,-6.775769,0.077803,0.000000,0.971887
0.097500,-0.123812,-6.770521,0.077860,0.000000,0.971887
0.098000,-0.127195,-6.765171,0.077917,0.000000,0.971886
0.098500,-0.130574,-6.759722,0.077973,0.000000,0.971886
0.099000,-0.133951,-6.754176,0.078030,0.000000,0.971886
0.099500,-0.137326,-6.748533,0.078086,0.000000,0.971885
0.100000,-0.140697,-6.742795,0.078143,0.000000,0.971885
0.100500,-0.144066,-6.736965,0.078199,0.000000,0.971885
0.101000,-0.147431,-6.731044,0.078255,0.000000,0.971884
0.101500,-0.150794,-6.725032,0.078311,0.000000,0.971884
0.102000,-0.154153,-6.718933,0.078367,0.000000,0.971884
0.102500,-0.157509,-6.712748,0.078423,0.000000,0.971883
0.103000,-0.160863,-6.706477,0.078479,0.000000,0.971883
0.103500,-0.164213,-6.700123,0.078535,0.000000,0.971883
0.104000,-0.167560,-6.693686,0.078591,0.000000,0.971882
0.104500,-0.170903,-6.687169,0.078647,0.000000,0.971882
0.105000,-0.174243,-6.680573,0.078703,0.000000,0.971882
0.105500,-0.177580,-6.673899,0.078759,0.000000,0.971881
0.106000,-0.180914,-6.667149,0.078814,0.000000,0.971881
0.106500,-0.184244,-6.660323,0.078870,0.000000,0.971881
0.107000,-0.187571,-6.653424,0.078925,0.000000,0.971880
0.107500,-0.190894,-6.646452,0.078981,0.000000,0.971880
0.108000,-0.194214,-6.639409,0.079036,0.000000,0.971880
0.108500,-0.197530,-6.632295,0.079091,0.000000,0.971879
0.109000,-0.200843,-6.625113,0.079146,0.000000,0.971879
0.109500,-0.204151,-6.617863,0.079202,0.000000,0.971879
0.110000,-0.207457,-6.610547,0.079257,0.000000,0.971878
0.110500,-0.210758,-6.603165,0.079312,0.000000,0.971878
0.111000,-0.214056,-6.595719,0.079367,0.000000,0.971877
0.111500,-0.217350,-6.588210,0.079422,0.000000,0.971877
0.112000,-0.220641,-6.580638,0.079476,0.000000,0.971877
0.112500,-0.223927,-6.573006,0.079531,0.000000,0.971876
0.113000,-0.227210,-6.565313,0.079586,0.000000,0.971876
0.113500,-0.230489,-6.557562,0.079640,0.000000,0.971876
0.114000,-0.233763,-6.549752,0.079695,0.000000,0.971875
0.114500,-0.237034,-6.541885,0.079749,0.000000,0.971875
0.115000,-0.240301,-6.533962,0.079804,0.000000,0.971875
0.115500,-0.243564,-6.525983,0.079858,0.000000,0.971874
0.116000,-0.246823,-6.517950,0.079912,0.000000,0.971874
0.116500,-0.250078,-6.509864,0.079967,0.000000,0.971873
0.117000,-0.253329,-6.501724,0.080021,0.000000,0.971873
0.117500,-0.256576,-6.493533,0.080075,0.000000,0.971873
0.118000,-0.259819,-6.485291,0.080129,0.000000,0.971872
0.118500,-0.263057,-6.476998,0.080183,0.000000,0.971872
0.119000,-0.266291,-6.468656,0.080237,0.000000,0.971871
0.119500,-0.269521,-6.460265,0.080291,0.000000,0.971871
0.120000,-0.272747,-6.451826,0.080344,0.000000,0.971871
0.120500,-0.275969,-6.443339,0.080398,0.000000,0.971870
0.121000,-0.279186,-6.434806,0.080451,0.000000,0.971870
0.121500,-0.282400,-6.426227,0.080505,0.000000,0.971869
0.122000,-0.285608,-6.417602,0.080558,0.000000,0.971869
0.122500,-0.288813,-6.408933,0.080612,0.000000,0.971869
0.123000,-0.292013,-6.400219,0.080665,0.000000,0.971868
0.123500,-0.295209,-6.391462,0.080718,0.000000,0.971868
0.124000,-0.298400,-6.382662,0.080771,0.000000,0.971867
0.124500,-0.301587,-6.373820,0.080825,0.000000,0.971867
0.125000,-0.304769,-6.364936,0.080878,0.000000,0.971866
0.125500,-0.307947,-6.356011,0.080931,0.000000,0.971866
0.126000,-0.311121,-6.347044,0.080983,0.000000,0.971866
0.126500,-0.314290,-6.338038,0.081036,0.000000,0.971865
0.127000,-0.317454,-6.328992,0.081089,0.000000,0.971865
0.127500,-0.320614,-6.319907,0.081142,0.000000,0.971864
0.128000,-0.323770,-6.310783,0.081194,0.000000,0.971864
0.128500,-0.326921,-6.301620,0.081247,0.000000,0.971863
0.129000,-0.330067,-6.292420,0.081299,0.000000,0.971863
0.129500,-0.333208,-6.283182,0.081351,0.000000,0.971862
0.130000,-0.336345,-6.273907,0.081404,0.000000,0.971862
0.130500,-0.339478,-6.264596,0.081456,0.000000,0.971862
0.131000,-0.342605,-6.255248,0.081508,0.000000,0.971861
0.131500,-0.345728,-6.245864,0.081560,0.000000,0.971861
0.132000,-0.348846,-6.236445,0.081612,0.000000,0.971860
0.132500,-0.351960,-6.226991,0.081664,0.000000,0.971860
0.133000,-0.355069,-6.217502,0.081716,0.000000,0.971859
0.133500,-0.358173,-6.207978,0.081768,0.000000,0.971859
0.134000,-0.361272,-6.198420,0.081819,0.000000,0.971858
0.134500,-0.364366,-6.188828,0.081871,0.000000,0.971858
0.135000,-0.367456,-6.179203,0.081922,0.000000,0.971857
0.135500,-0.370541,-6.169545,0.081974,0.000000,0.971857
0.136000,-0.373621,-6.159853,0.082025,0.000000,0.971856
0.136500,-0.376696,-6.150129,0.082077,0.000000,0.971856
0.137000,-0.379766,-6.140372,0.082128,0.000000,0.971856
0.137500,-0.382831,-6.130583,0.082179,0.000000,0.971855
0.138000,-0.385891,-6.120762,0.082230,0.000000,0.971855
0.138500,-0.388947,-6.110910,0.082281,0.000000,0.971854
0.139000,-0.391997,-6.101025,0.082332,0.000000,0.971854
0.139500,-0.395043,-6.091110,0.082383,0.000000,0.971853
0.140000,-0.398084,-6.081163,0.082433,0.000000,0.971853
0.140500,-0.401119,-6.071186,0.082484,0.000000,0.971852
0.141000,-0.404150,-6.061178,0.082535,0.000000,0.971852
0.141500,-0.407175,-6.051139,0.082585,0.000000,0.971851
0.142000,-0.410196,-6.041070,0.082636,0.000000,0.971851
0.142500,-0.413211,-6.030971,0.082686,0.000000,0.971850
0.143000,-0.416222,-6.020842,0.082736,0.000000,0.971850
0.143500,-0.419227,-6.010683,0.082787,0.000000,0.971849
0.144000,-0.422227,-6.000495,0.082837,0.000000,0.971849
0.144500,-0.425223,-5.990277,0.082887,0.000000,0.971848
0.145000,-0.428213,-5.980029,0.082937,0.000000,0.971848
0.145500,-0.431197,-5.969752,0.082987,0.000000,0.971847
0.146000,-0.434177,-5.959447,0.083036,0.000000,0.971847
0.146500,-0.437152,-5.949112,0.083086,0.000000,0.971846
0.147000,-0.440121,-5.938748,0.083136,0.000000,0.971845
0.147500,-0.443085,-5.928355,0.083185,0.000000,0.971845
0.148000,-0.446044,-5.917934,0.083235,0.000000,0.971844
0.148500,-0.448998,-5.907682,0.083284,0.000000,0.971844
0.149000,-0.451947,-5.897675,0.083333,0.000000,0.971843
0.149500,-0.454891,-5.887900,0.083383,0.000000,0.971843
0.150000,-0.457830,-5.878347,0.083432,0.000000,0.971842
0.150500,-0.460765,-5.869004,0.083481,0.000000,0.971842
0.151000,-0.463694,-5.859861,0.083530,0.000000,0.971841
0.151500,-0.466620,-5.850907,0.083579,0.000000,0.971841
0.152000,-0.469541,-5.842134,0.083628,0.000000,0.971840
0.152500,-0.472458,-5.833531,0.083676,0.000000,0.971840
0.153000,-0.475370,-5.825090,0.083725,0.000000,0.971839
0.153500,-0.478279,-5.816802,0.083774,0.000000,0.971839
0.154000,-0.481183,-5.808657,0.083822,0.000000,0.971838
0.154500,-0.484083,-5.800649,0.083870,0.000000,0.971838
0.155000,-0.486980,-5.792770,0.083919,0.000000,0.971837
0.155500,-0.489872,-5.785011,0.083967,0.000000,0.971836
0.156000,-0.492761,-5.777366,0.084015,0.000000,0.971836
0.156500,-0.495646,-5.769827,0.084063,0.000000,0.971835
0.157000,-0.498527,-5.762389,0.084111,0.000000,0.971835
0.157500,-0.501405,-5.755045,0.084159,0.000000,0.971834
0.158000,-0.504278,-5.747788,0.084207,0.000000,0.971834
0.158500,-0.507149,-5.740613,0.084255,0.000000,0.971833
0.159000,-0.510015,-5.733514,0.084303,0.000000,0.971833
0.159500,-0.512879,-5.726486,0.084350,0.000000,0.971832
0.160000,-0.515738,-5.719523,0.084398,0.000000,0.971831
0.160500,-0.518595,-5.712621,0.084445,0.000000,0.971831
0.161000,-0.521448,-5.705775,0.084493,0.000000,0.971830
0.161500,-0.524297,-5.698980,0.084540,0.000000,0.971830
0.162000,-0.527143,-5.692232,0.084587,0.000000,0.971829
0.162500,-0.529986,-5.685527,0.084634,0.000000,0.971829
0.163000,-0.532825,-5.678861,0.084681,0.000000,0.971828
0.163500,-0.535662,-5.672229,0.084728,0.000000,0.971828
0.164000,-0.538494,-5.665629,0.084775,0.000000,0.971827
0.164500,-0.541324,-5.659057,0.084822,0.000000,0.971827
0.165000,-0.544150,-5.652510,0.084869,0.000000,0.971826
0.165500,-0.546973,-5.645985,0.084916,0.000000,0.971825
0.166000,-0.549793,-5.639478,0.084962,0.000000,0.971825
0.166500,-0.552609,-5.632986,0.085009,0.000000,0.971824
0.167000,-0.555423,-5.626508,0.085055,0.000000,0.971824
0.167500,-0.558233,-5.620041,0.085102,0.000000,0.971823
0.168000,-0.561039,-5.613581,0.085148,0.000000,0.971823
0.168500,-0.563843,-5.607127,0.085194,0.000000,0.971822
0.169000,-0.566643,-5.600677,0.085240,0.000000,0.971821
0.169500,-0.569441,-5.594229,0.085286,0.000000,0.971821
0.170000,-0.572234,-5.587780,0.085332,0.000000,0.971820
0.170500,-0.575025,-5.581329,0.085378,0.000000,0.971820
0.171000,-0.577812,-5.574874,0.085424,0.000000,0.971819
0.171500,-0.580597,-5.568414,0.085470,0.000000,0.971819
0.172000,-0.583378,-5.561947,0.085516,0.000000,0.971818
0.172500,-0.586155,-5.555471,0.085561,0.000000,0.971818
0.173000,-0.588930,-5.548985,0.085607,0.000000,0.971817
0.173500,-0.591701,-5.542489,0.085652,0.000000,0.971816
0.174000,-0.594469,-5.535980,0.085698,0.000000,0.971816
0.174500,-0.597234,-5.529457,0.085743,0.000000,0.971815
0.175000,-0.599995,-5.522921,0.085788,0.000000,0.971815
0.175500,-0.602754,-5.516369,0.085833,0.000000,0.971814
0.176000,-0.605508,-5.509801,0.085878,0.000000,0.971814
0.176500,-0.608260,-5.503216,0.085923,0.000000,0.971813
0.177000,-0.611008,-5.496614,0.085968,0.000000,0.971812
0.177500,-0.613753,-5.489993,0.086013,0.000000,0.971812
0.178000,-0.616495,-5.483353,0.086058,0.000000,0.971811
0.178500,-0.619233,-5.476694,0.086103,0.000000,0.971811
