time(s),ankle_angle(deg),ankle_velocity(deg/s),body_com_x(m),body_com_y(m),body_com_z(m)
0.000000,5.729578,-1.145916,-0.015819,0.000000,0.967612
0.000500,5.726308,-6.540060,-0.015819,0.000000,0.967612
0.001000,5.723226,-6.164309,-0.015810,0.000000,0.967611
0.001500,5.720325,-5.802477,-0.015802,0.000000,0.967609
0.002000,5.717597,-5.454144,-0.015793,0.000000,0.967608
0.002500,5.715038,-5.118897,-0.015785,0.000000,0.967606
0.003000,5.712640,-4.796335,-0.015777,0.000000,0.967604
0.003500,5.710397,-4.486068,-0.015769,0.000000,0.967602
0.004000,5.708303,-4.187712,-0.015761,0.000000,0.967600
0.004500,5.706353,-3.900898,-0.015754,0.000000,0.967598
0.005000,5.704540,-3.625261,-0.015746,0.000000,0.967595
0.005500,5.702860,-3.360449,-0.015739,0.000000,0.967593
0.006000,5.701307,-3.106117,-0.015733,0.000000,0.967591
0.006500,5.699876,-2.861931,-0.015726,0.000000,0.967588
0.007000,5.698562,-2.627562,-0.015720,0.000000,0.967586
0.007500,5.697360,-2.402693,-0.015714,0.000000,0.967583
0.008000,5.696267,-2.187014,-0.015708,0.000000,0.967581
0.008500,5.695277,-1.980223,-0.015702,0.000000,0.967578
0.009000,5.694386,-1.782026,-0.015697,0.000000,0.967575
0.009500,5.693590,-1.592136,-0.015692,0.000000,0.967572
0.010000,5.692885,-1.410276,-0.015687,0.000000,0.967570
0.010500,5.692267,-1.236174,-0.015682,0.000000,0.967567
0.011000,5.691732,-1.069567,-0.015677,0.000000,0.967564
0.011500,5.691277,-0.910197,-0.015673,0.000000,0.967561
0.012000,5.690898,-0.757816,-0.015669,0.000000,0.967559
0.012500,5.690592,-0.612181,-0.015665,0.000000,0.967556
0.013000,5.690355,-0.473056,-0.015662,0.000000,0.967553
0.013500,5.690185,-0.340211,-0.015658,0.000000,0.967550
0.014000,5.690078,-0.213424,-0.015655,0.000000,0.967547
0.014500,5.690032,-0.092477,-0.015652,0.000000,0.967544
0.015000,5.690044,0.022840,-0.015649,0.000000,0.967541
0.015500,5.690110,0.132730,-0.015647,0.000000,0.967539
0.016000,5.690229,0.237394,-0.015644,0.000000,0.967536
0.016500,5.690397,0.337024,-0.015642,0.000000,0.967533
0.017000,5.690613,0.431807,-0.015640,0.000000,0.967530
0.017500,5.690874,0.521926,-0.015639,0.000000,0.967527
0.018000,5.691178,0.607555,-0.015637,0.000000,0.967525
0.018500,5.691522,0.688868,-0.015636,0.000000,0.967522
0.019000,5.691905,0.766029,-0.015635,0.000000,0.967519
0.019500,5.692325,0.839201,-0.015634,0.000000,0.967516
0.020000,5.692779,0.908539,-0.015633,0.000000,0.967514
0.020500,5.693266,0.974195,-0.015633,0.000000,0.967511
0.021000,5.693784,1.036315,-0.015633,0.000000,0.967508
0.021500,5.694332,1.095042,-0.015633,0.000000,0.967505
0.022000,5.694907,1.150515,-0.015633,0.000000,0.967503
0.022500,5.695509,1.202865,-0.015633,0.000000,0.967500
0.023000,5.696135,1.252224,-0.015634,0.000000,0.967498
0.023500,5.696784,1.298715,-0.015635,0.000000,0.967495
0.024000,5.697455,1.342461,-0.015636,0.000000,0.967492
0.024500,5.698147,1.383579,-0.015637,0.000000,0.967490
0.025000,5.698858,1.422182,-0.015638,0.000000,0.967487
0.025500,5.699587,1.458379,-0.015640,0.000000,0.967485
0.026000,5.700333,1.492278,-0.015642,0.000000,0.967482
0.026500,5.701095,1.523981,-0.015644,0.000000,0.967480
0.027000,5.701872,1.553587,-0.015646,0.000000,0.967477
0.027500,5.702663,1.581192,-0.015648,0.000000,0.967475
0.028000,5.703466,1.606889,-0.015651,0.000000,0.967473
0.028500,5.704282,1.630767,-0.015654,0.000000,0.967470
0.029000,5.705108,1.652912,-0.015657,0.000000,0.967468
0.029500,5.705945,1.673409,-0.015660,0.000000,0.967465
0.030000,5.706791,1.692338,-0.015663,0.000000,0.967463
0.030500,5.707646,1.709775,-0.015667,0.000000,0.967461
0.031000,5.708509,1.725797,-0.015670,0.000000,0.967459
0.031500,5.709379,1.740475,-0.015674,0.000000,0.967456
0.032000,5.710256,1.753879,-0.015678,0.000000,0.967454
0.032500,5.711139,1.766076,-0.015683,0.000000,0.967452
0.033000,5.712028,1.777131,-0.015687,0.000000,0.967450
0.033500,5.712921,1.787105,-0.015692,0.000000,0.967448
0.034000,5.713819,1.796059,-0.015697,0.000000,0.967445
0.034500,5.714721,1.804051,-0.015702,0.000000,0.967443
0.035000,5.715627,1.811135,-0.015707,0.000000,0.967441
0.035500,5.716535,1.817365,-0.015712,0.000000,0.967439
0.036000,5.717447,1.822793,-0.015718,0.000000,0.967437
0.036500,5.718361,1.827467,-0.015724,0.000000,0.967435
0.037000,5.719276,1.831434,-0.015730,0.000000,0.967433
0.037500,5.720194,1.834741,-0.015736,0.000000,0.967431
0.038000,5.721112,1.837431,-0.015742,0.000000,0.967429
0.038500,5.722032,1.839544,-0.015748,0.000000,0.967427
0.039000,5.722953,1.841123,-0.015755,0.000000,0.967425
0.039500,5.723874,1.842204,-0.015762,0.000000,0.967423
0.040000,5.724795,1.842825,-0.015769,0.000000,0.967421
0.040500,5.725717,1.843020,-0.015776,0.000000,0.967419
0.041000,5.726638,1.842824,-0.015783,0.000000,0.967417
0.041500,5.727559,1.842269,-0.015791,0.000000,0.967415
0.042000,5.728480,1.841385,-0.015799,0.000000,0.967413
0.042500,5.729400,1.840202,-0.015806,0.000000,0.967411
0.043000,5.730319,1.838749,-0.015814,0.000000,0.967410
0.043500,5.731238,1.837051,-0.015823,0.000000,0.967408
0.044000,5.732155,1.835134,-0.015831,0.000000,0.967406
0.044500,5.733072,1.833023,-0.015839,0.000000,0.967404
0.045000,5.733987,1.830741,-0.015848,0.000000,0.967402
0.045500,5.734902,1.828310,-0.015857,0.000000,0.967400
0.046000,5.735814,1.825750,-0.015866,0.000000,0.967399
0.046500,5.736726,1.823083,-0.015875,0.000000,0.967397
0.047000,5.737636,1.820326,-0.015884,0.000000,0.967395
0.047500,5.738545,1.817498,-0.015894,0.000000,0.967393
0.048000,5.739452,1.814616,-0.015903,0.000000,0.967391
0.048500,5.740358,1.811695,-0.015913,0.000000,0.967390
0.049000,5.741262,1.808752,-0.015923,0.000000,0.967388
0.049500,5.742165,1.805800,-0.015933,0.000000,0.967386
0.050000,5.743067,1.802852,-0.015943,0.000000,0.967385
0.050500,5.743967,1.799922,-0.015954,0.000000,0.967383
0.051000,5.744865,1.797022,-0.015964,0.000000,0.967381
0.051500,5.745762,1.794163,-0.015975,0.000000,0.967379
0.052000,5.746658,1.791356,-0.015986,0.000000,0.967378
0.052500,5.747552,1.788609,-0.015997,0.000000,0.967376
0.053000,5.748445,1.785934,-0.016008,0.000000,0.967374
0.053500,5.749337,1.783338,-0.016019,0.000000,0.967373
0.054000,5.750227,1.780829,-0.016031,0.000000,0.967371
0.054500,5.751117,1.778414,-0.016042,0.000000,0.967369
0.055000,5.752005,1.776102,-0.016054,0.000000,0.967367
0.055500,5.752892,1.773898,-0.016066,0.000000,0.967366
0.056000,5.753777,1.771807,-0.016078,0.000000,0.967364
0.056500,5.754662,1.769836,-0.016090,0.000000,0.967362
0.057000,5.755546,1.767989,-0.016102,0.000000,0.967361
0.057500,5.756429,1.766271,-0.016115,0.000000,0.967359
0.058000,5.757312,1.764685,-0.016127,0.000000,0.967357
0.058500,5.758193,1.763236,-0.016140,0.000000,0.967356
0.059000,5.759074,1.761926,-0.016153,0.000000,0.967354
0.059500,5.759955,1.760759,-0.016166,0.000000,0.967352
0.060000,5.760835,1.759736,-0.016179,0.000000,0.967351
0.060500,5.761714,1.758861,-0.016192,0.000000,0.967349
0.061000,5.762593,1.758134,-0.016206,0.000000,0.967348
0.061500,5.763472,1.757558,-0.016219,0.000000,0.967346
0.062000,5.764350,1.757134,-0.016233,0.000000,0.967344
0.062500,5.765229,1.756862,-0.016247,0.000000,0.967343
0.063000,5.766107,1.756743,-0.016261,0.000000,0.967341
0.063500,5.766986,1.756778,-0.016275,0.000000,0.967339
0.064000,5.767864,1.756966,-0.016289,0.000000,0.967338
0.064500,5.768743,1.757309,-0.016303,0.000000,0.967336
0.065000,5.769622,1.757804,-0.016318,0.000000,0.967334
0.065500,5.770501,1.758453,-0.016332,0.000000,0.967333
0.066000,5.771381,1.759253,-0.016347,0.000000,0.967331
0.066500,5.772261,1.760205,-0.016362,0.000000,0.967329
0.067000,5.773141,1.761308,-0.016377,0.000000,0.967328
0.067500,5.774023,1.762559,-0.016392,0.000000,0.967326
0.068000,5.774905,1.763958,-0.016407,0.000000,0.967324
0.068500,5.775787,1.765503,-0.016422,0.000000,0.967323
0.069000,5.776671,1.767192,-0.016438,0.000000,0.967321
0.069500,5.777555,1.769024,-0.016453,0.000000,0.967319
0.070000,5.778441,1.770997,-0.016469,0.000000,0.967317
0.070500,5.779327,1.773108,-0.016485,0.000000,0.967316
0.071000,5.780215,1.775356,-0.016500,0.000000,0.967314
0.071500,5.781104,1.777738,-0.016516,0.000000,0.967312
0.072000,5.781994,1.780252,-0.016533,0.000000,0.967311
0.072500,5.782886,1.782896,-0.016549,0.000000,0.967309
0.073000,5.783778,1.785666,-0.016565,0.000000,0.967307
0.073500,5.784673,1.788561,-0.016582,0.000000,0.967306
0.074000,5.785569,1.791578,-0.016598,0.000000,0.967304
0.074500,5.786466,1.794714,-0.016615,0.000000,0.967302
0.075000,5.787365,1.797966,-0.016632,0.000000,0.967300
0.075500,5.788266,1.801332,-0.016649,0.000000,0.967299
0.076000,5.789168,1.804808,-0.016666,0.000000,0.967297
0.076500,5.790072,1.808392,-0.016683,0.000000,0.967295
0.077000,5.790978,1.812081,-0.016700,0.000000,0.967293
0.077500,5.791886,1.815872,-0.016717,0.000000,0.967292
0.078000,5.792796,1.819762,-0.016735,0.000000,0.967290
0.078500,5.793708,1.823748,-0.016752,0.000000,0.967288
0.079000,5.794622,1.827826,-0.016770,0.000000,0.967286
0.079500,5.795538,1.831994,-0.016788,0.000000,0.967285
0.080000,5.796456,1.836249,-0.016805,0.000000,0.967283
0.080500,5.797376,1.840587,-0.016823,0.000000,0.967281
0.081000,5.798299,1.845006,-0.016841,0.000000,0.967279
0.081500,5.799223,1.849503,-0.016860,0.000000,0.967278
0.082000,5.800150,1.854074,-0.016878,0.000000,0.967276
0.082500,5.801080,1.858716,-0.016896,0.000000,0.967274
0.083000,5.802012,1.863426,-0.016914,0.000000,0.967272
0.083500,5.802946,1.868202,-0.016933,0.000000,0.967270
0.084000,5.803882,1.873039,-0.016952,0.000000,0.967269
0.084500,5.804821,1.877936,-0.016970,0.000000,0.967267
0.085000,5.805763,1.882888,-0.016989,0.000000,0.967265
0.085500,5.806707,1.887894,-0.017008,0.000000,0.967263
0.086000,5.807653,1.892949,-0.017027,0.000000,0.967261
0.086500,5.808602,1.898051,-0.017046,0.000000,0.967259
0.087000,5.809554,1.903198,-0.017065,0.000000,0.967258
0.087500,5.810508,1.908385,-0.017084,0.000000,0.967256
0.088000,5.811465,1.913610,-0.017104,0.000000,0.967254
0.088500,5.812424,1.918871,-0.017123,0.000000,0.967252
0.089000,5.813386,1.924164,-0.017143,0.000000,0.967250
0.089500,5.814351,1.929487,-0.017162,0.000000,0.967248
0.090000,5.815318,1.934836,-0.017182,0.000000,0.967246
0.090500,5.816288,1.940210,-0.017202,0.000000,0.967245
0.091000,5.817261,1.945604,-0.017221,0.000000,0.967243
0.091500,5.818237,1.951017,-0.017241,0.000000,0.967241
0.092000,5.819215,1.956445,-0.017261,0.000000,0.967239
0.092500,5.820196,1.961887,-0.017281,0.000000,0.967237
0.093000,5.821180,1.967339,-0.017302,0.000000,0.967235
0.093500,5.822166,1.972799,-0.017322,0.000000,0.967233
0.094000,5.823155,1.978265,-0.017342,0.000000,0.967231
0.094500,5.824147,1.983733,-0.017362,0.000000,0.967229
0.095000,5.825142,1.989201,-0.017383,0.000000,0.967227
0.095500,5.826139,1.994667,-0.017403,0.000000,0.967225
0.096000,5.827139,2.000129,-0.017424,0.000000,0.967223
0.096500,5.828142,2.005584,-0.017445,0.000000,0.967221
0.097000,5.829147,2.011029,-0.017465,0.000000,0.967219
0.097500,5.830155,2.016463,-0.017486,0.000000,0.967218
0.098000,5.831166,2.021882,-0.017507,0.000000,0.967216
0.098500,5.832180,2.027286,-0.017528,0.000000,0.967214
0.099000,5.833196,2.032672,-0.017549,0.000000,0.967212
0.099500,5.834215,2.038037,-0.017570,0.000000,0.967210
0.100000,5.835237,2.043379,-0.017591,0.000000,0.967208
0.100500,5.836261,2.048696,-0.017612,0.000000,0.967206
0.101000,5.837288,2.053987,-0.017634,0.000000,0.967204
0.101500,5.838318,2.059249,-0.017655,0.000000,0.967202
0.102000,5.839350,2.064480,-0.017676,0.000000,0.967200
0.102500,5.840385,2.069679,-0.017698,0.000000,0.967198
0.103000,5.841423,2.074843,-0.017719,0.000000,0.967196
0.103500,5.842463,2.079970,-0.017741,0.000000,0.967194
0.104000,5.843505,2.085060,-0.017763,0.000000,0.967192
0.104500,5.844550,2.090109,-0.017784,0.000000,0.967189
0.105000,5.845598,2.095116,-0.017806,0.000000,0.967187
0.105500,5.846648,2.100079,-0.017828,0.000000,0.967185
0.106000,5.847700,2.104997,-0.017850,0.000000,0.967183
0.106500,5.848755,2.109868,-0.017872,0.000000,0.967181
0.107000,5.849813,2.114691,-0.017894,0.000000,0.967179
0.107500,5.850872,2.119463,-0.017916,0.000000,0.967177
0.108000,5.851934,2.124184,-0.017938,0.000000,0.967175
0.108500,5.852999,2.128851,-0.017960,0.000000,0.967173
0.109000,5.854066,2.133463,-0.017982,0.000000,0.967171
0.109500,5.855135,2.138020,-0.018004,0.000000,0.967169
0.110000,5.856206,2.142518,-0.018027,0.000000,0.967167
0.110500,5.857279,2.146957,-0.018049,0.000000,0.967165
0.111000,5.858355,2.151336,-0.018071,0.000000,0.967163
0.111500,5.859433,2.155653,-0.018094,0.000000,0.967160
0.112000,5.860513,2.159907,-0.018116,0.000000,0.967158
0.112500,5.861595,2.164097,-0.018139,0.000000,0.967156
0.113000,5.862679,2.168221,-0.018161,0.000000,0.967154
0.113500,5.863765,2.172278,-0.018184,0.000000,0.967152
0.114000,5.864853,2.176267,-0.018207,0.000000,0.967150
0.114500,5.865943,2.180186,-0.018229,0.000000,0.967148
0.115000,5.867035,2.184036,-0.018252,0.000000,0.967146
0.115500,5.868129,2.187813,-0.018275,0.000000,0.967143
0.116000,5.869225,2.191519,-0.018298,0.000000,0.967141
0.116500,5.870322,2.195150,-0.018320,0.000000,0.967139
0.117000,5.871422,2.198707,-0.018343,0.000000,0.967137
0.117500,5.872523,2.202189,-0.018366,0.000000,0.967135
0.118000,5.873626,2.205593,-0.018389,0.000000,0.967133
0.118500,5.874730,2.208920,-0.018412,0.000000,0.967131
0.119000,5.875836,2.212169,-0.018435,0.000000,0.967128
0.119500,5.876944,2.215338,-0.018458,0.000000,0.967126
0.120000,5.878053,2.218427,-0.018481,0.000000,0.967124
0.120500,5.879164,2.221434,-0.018504,0.000000,0.967122
0.121000,5.880276,2.224360,-0.018528,0.000000,0.967120
0.121500,5.881390,2.227202,-0.018551,0.000000,0.967118
0.122000,5.882505,2.229961,-0.018574,0.000000,0.967115
0.122500,5.883621,2.232636,-0.018597,0.000000,0.967113
0.123000,5.884739,2.235225,-0.018620,0.000000,0.967111
0.123500,5.885857,2.237729,-0.018644,0.000000,0.967109
0.124000,5.886977,2.240146,-0.018667,0.000000,0.967107
0.124500,5.888099,2.242475,-0.018690,0.000000,0.967105
0.125000,5.889221,2.244717,-0.018714,0.000000,0.967102
0.125500,5.890345,2.246870,-0.018737,0.000000,0.967100
0.126000,5.891469,2.248933,-0.018761,0.000000,0.967098
0.126500,5.892594,2.250907,-0.018784,0.000000,0.967096
0.127000,5.893721,2.252790,-0.018807,0.000000,0.967094
0.127500,5.894848,2.254582,-0.018831,0.000000,0.967091
0.128000,5.895976,2.256283,-0.018854,0.000000,0.967089
0.128500,5.897105,2.257891,-0.018878,0.000000,0.967087
0.129000,5.898235,2.259406,-0.018901,0.000000,0.967085
0.129500,5.899365,2.260828,-0.018925,0.000000,0.967082
0.130000,5.900496,2.262156,-0.018948,0.000000,0.967080
0.130500,5.901628,2.263390,-0.018972,0.000000,0.967078
0.131000,5.902760,2.264529,-0.018996,0.000000,0.967076
0.131500,5.903893,2.265573,-0.019019,0.000000,0.967074
0.132000,5.905026,2.266522,-0.019043,0.000000,0.967071
0.132500,5.906160,2.267374,-0.019066,0.000000,0.967069
0.133000,5.907294,2.268130,-0.019090,0.000000,0.967067
0.133500,5.908429,2.268788,-0.019114,0.000000,0.967065
0.134000,5.909563,2.269350,-0.019137,0.000000,0.967063
0.134500,5.910698,2.269813,-0.019161,0.000000,0.967060
0.135000,5.911833,2.270179,-0.019185,0.000000,0.967058
0.135500,5.912968,2.270446,-0.019208,0.000000,0.967056
0.136000,5.914104,2.270614,-0.019232,0.000000,0.967054
0.136500,5.915239,2.270683,-0.019256,0.000000,0.967051
0.137000,5.916374,2.270653,-0.019279,0.000000,0.967049
0.137500,5.917510,2.270523,-0.019303,0.000000,0.967047
0.138000,5.918645,2.270292,-0.019327,0.000000,0.967045
0.138500,5.919780,2.269962,-0.019350,0.000000,0.967042
0.139000,5.920915,2.269530,-0.019374,0.000000,0.967040
0.139500,5.922049,2.268998,-0.019398,0.000000,0.967038
0.140000,5.923183,2.268365,-0.019421,0.000000,0.967036
0.140500,5.924317,2.267630,-0.019445,0.000000,0.967034
0.141000,5.925450,2.266793,-0.019469,0.000000,0.967031
0.141500,5.926583,2.265854,-0.019492,0.000000,0.967029
0.142000,5.927716,2.264813,-0.019516,0.000000,0.967027
0.142500,5.928848,2.263670,-0.019540,0.000000,0.967025
0.143000,5.929979,2.262424,-0.019563,0.000000,0.967022
0.143500,5.931109,2.261075,-0.019587,0.000000,0.967020
0.144000,5.932239,2.259623,-0.019611,0.000000,0.967018
0.144500,5.933368,2.258068,-0.019634,0.000000,0.967016
0.145000,5.934496,2.256409,-0.019658,0.000000,0.967014
0.145500,5.935624,2.254647,-0.019681,0.000000,0.967011
0.146000,5.936750,2.252780,-0.019705,0.000000,0.967009
0.146500,5.937876,2.250810,-0.019729,0.000000,0.967007
0.147000,5.939000,2.248736,-0.019752,0.000000,0.967005
0.147500,5.940123,2.246557,-0.019776,0.000000,0.967002
0.148000,5.941245,2.244274,-0.019799,0.000000,0.967000
0.148500,5.942366,2.241886,-0.019823,0.000000,0.966998
0.149000,5.943486,2.239394,-0.019846,0.000000,0.966996
0.149500,5.944604,2.236797,-0.019870,0.000000,0.966994
0.150000,5.945721,2.234094,-0.019893,0.000000,0.966991
0.150500,5.946837,2.231287,-0.019917,0.000000,0.966989
0.151000,5.947951,2.228374,-0.019940,0.000000,0.966987
0.151500,5.949064,2.225356,-0.019964,0.000000,0.966985
0.152000,5.950175,2.222232,-0.019987,0.000000,0.966982
0.152500,5.951285,2.219003,-0.020010,0.000000,0.966980
0.153000,5.952392,2.215668,-0.020034,0.000000,0.966978
0.153500,5.953499,2.212227,-0.020057,0.000000,0.966976
0.154000,5.954603,2.208680,-0.020080,0.000000,0.966974
0.154500,5.955705,2.205027,-0.020104,0.000000,0.966972
0.155000,5.956806,2.201269,-0.020127,0.000000,0.966969
0.155500,5.957905,2.197404,-0.020150,0.000000,0.966967
0.156000,5.959001,2.193432,-0.020173,0.000000,0.966965
0.156500,5.960096,2.189355,-0.020196,0.000000,0.966963
0.157000,5.961189,2.185171,-0.020219,0.000000,0.966961
0.157500,5.962279,2.180880,-0.020243,0.000000,0.966958
0.158000,5.963367,2.176483,-0.020266,0.000000,0.966956
0.158500,5.964453,2.171979,-0.020289,0.000000,0.966954
0.159000,5.965537,2.167369,-0.020312,0.000000,0.966952
0.159500,5.966618,2.162652,-0.020335,0.000000,0.966950
0.160000,5.967697,2.157828,-0.020357,0.000000,0.966948
0.160500,5.968774,2.152897,-0.020380,0.000000,0.966945
0.161000,5.969848,2.147859,-0.020403,0.000000,0.966943
0.161500,5.970919,2.142715,-0.020426,0.000000,0.966941
0.162000,5.971988,2.137463,-0.020449,0.000000,0.966939
0.162500,5.973054,2.132104,-0.020472,0.000000,0.966937
0.163000,5.974117,2.126638,-0.020494,0.000000,0.966935
0.163500,5.975178,2.121065,-0.020517,0.000000,0.966933
0.164000,5.976235,2.115385,-0.020539,0.000000,0.966930
0.164500,5.977290,2.109597,-0.020562,0.000000,0.966928
0.165000,5.978342,2.103702,-0.020585,0.000000,0.966926
0.165500,5.979391,2.097700,-0.020607,0.000000,0.966924
0.166000,5.980437,2.091590,-0.020629,0.000000,0.966922
0.166500,5.981479,2.085373,-0.020652,0.000000,0.966920
0.167000,5.982519,2.079049,-0.020674,0.000000,0.966918
0.167500,5.983555,2.072617,-0.020697,0.000000,0.966916
0.168000,5.984588,2.066077,-0.020719,0.000000,0.966914
0.168500,5.985618,2.059430,-0.020741,0.000000,0.966911
0.169000,5.986644,2.052675,-0.020763,0.000000,0.966909
0.169500,5.987667,2.045813,-0.020785,0.000000,0.966907
0.170000,5.988687,2.038843,-0.020807,0.000000,0.966905
0.170500,5.989702,2.031766,-0.020829,0.000000,0.966903
0.171000,5.990715,2.024581,-0.020851,0.000000,0.966901
0.171500,5.991723,2.017288,-0.020873,0.000000,0.966899
0.172000,5.992728,2.009887,-0.020895,0.000000,0.966897
0.172500,5.993730,2.002379,-0.020917,0.000000,0.966895
0.173000,5.994727,1.994762,-0.020938,0.000000,0.966893
0.173500,5.995720,1.987038,-0.020960,0.000000,0.966891
0.174000,5.996710,1.979207,-0.020982,0.000000,0.966889
0.174500,5.997696,1.971267,-0.021003,0.000000,0.966887
0.175000,5.998677,1.963219,-0.021025,0.000000,0.966885
0.175500,5.999655,1.955064,-0.021046,0.000000,0.966883
0.176000,6.000628,1.946800,-0.021067,0.000000,0.966881
0.176500,6.001597,1.938429,-0.021089,0.000000,0.966879
0.177000,6.002562,1.929950,-0.021110,0.000000,0.966877
0.177500,6.003523,1.921363,-0.021131,0.000000,0.966875
0.178000,6.004479,1.912667,-0.021152,0.000000,0.966873
0.178500,6.005431,1.903864,-0.021173,0.000000,0.966871
0.179000,6.006379,1.894953,-0.021194,0.000000,0.966869
0.179500,6.007322,1.885933,-0.021215,0.000000,0.966867
0.180000,6.008260,1.876806,-0.021236,0.000000,0.966865
