time(s),ankle_angle(deg),ankle_velocity(deg/s),body_com_x(m),body_com_y(m),body_com_z(m)
0.000000,5.729578,0.000000,-0.015819,0.000000,0.967612
0.000500,5.726874,-5.408574,-0.015819,0.000000,0.967612
0.001000,5.724358,-5.032243,-0.015819,0.000000,0.967610
0.001500,5.722023,-4.669848,-0.015820,0.000000,0.967608
0.002000,5.719862,-4.320967,-0.015820,0.000000,0.967605
0.002500,5.717870,-3.985188,-0.015821,0.000000,0.967602
0.003000,5.716038,-3.662109,-0.015822,0.000000,0.967600
0.003500,5.714363,-3.351338,-0.015823,0.000000,0.967597
0.004000,5.712837,-3.052493,-0.015824,0.000000,0.967594
0.004500,5.711454,-2.765203,-0.015826,0.000000,0.967590
0.005000,5.710209,-2.489103,-0.015828,0.000000,0.967587
0.005500,5.709097,-2.223841,-0.015830,0.000000,0.967584
0.006000,5.708113,-1.969070,-0.015832,0.000000,0.967581
0.006500,5.707251,-1.724457,-0.015835,0.000000,0.967577
0.007000,5.706506,-1.489672,-0.015837,0.000000,0.967574
0.007500,5.705874,-1.264399,-0.015840,0.000000,0.967570
0.008000,5.705350,-1.048325,-0.015844,0.000000,0.967567
0.008500,5.704929,-0.841149,-0.015847,0.000000,0.967563
0.009000,5.704608,-0.642577,-0.015851,0.000000,0.967560
0.009500,5.704382,-0.452321,-0.015855,0.000000,0.967556
0.010000,5.704246,-0.270104,-0.015859,0.000000,0.967552
0.010500,5.704199,-0.095654,-0.015863,0.000000,0.967549
0.011000,5.704234,0.071294,-0.015868,0.000000,0.967545
0.011500,5.704350,0.230996,-0.015872,0.000000,0.967541
0.012000,5.704542,0.383702,-0.015877,0.000000,0.967538
0.012500,5.704806,0.529655,-0.015883,0.000000,0.967534
0.013000,5.705141,0.669091,-0.015888,0.000000,0.967530
0.013500,5.705542,0.802241,-0.015894,0.000000,0.967526
0.014000,5.706007,0.929326,-0.015899,0.000000,0.967523
0.014500,5.706532,1.050565,-0.015906,0.000000,0.967519
0.015000,5.707115,1.166168,-0.015912,0.000000,0.967515
0.015500,5.707753,1.276340,-0.015918,0.000000,0.967511
0.016000,5.708444,1.381280,-0.015925,0.000000,0.967508
0.016500,5.709185,1.481181,-0.015932,0.000000,0.967504
0.017000,5.709973,1.576231,-0.015939,0.000000,0.967500
0.017500,5.710806,1.666611,-0.015947,0.000000,0.967496
0.018000,5.711682,1.752498,-0.015954,0.000000,0.967493
0.018500,5.712599,1.834065,-0.015962,0.000000,0.967489
0.019000,5.713555,1.911477,-0.015970,0.000000,0.967485
0.019500,5.714547,1.984895,-0.015978,0.000000,0.967482
0.020000,5.715575,2.054476,-0.015987,0.000000,0.967478
0.020500,5.716635,2.120372,-0.015995,0.000000,0.967475
0.021000,5.717726,2.182730,-0.016004,0.000000,0.967471
0.021500,5.718847,2.241693,-0.016013,0.000000,0.967467
0.022000,5.719996,2.297397,-0.016022,0.000000,0.967464
0.022500,5.721171,2.349978,-0.016032,0.000000,0.967460
0.023000,5.722371,2.399565,-0.016042,0.000000,0.967457
0.023500,5.723594,2.446283,-0.016051,0.000000,0.967453
0.024000,5.724839,2.490253,-0.016061,0.000000,0.967450
0.024500,5.726105,2.531593,-0.016072,0.000000,0.967446
0.025000,5.727390,2.570417,-0.016082,0.000000,0.967443
0.025500,5.728693,2.606835,-0.016093,0.000000,0.967439
0.026000,5.730014,2.640953,-0.016104,0.000000,0.967436
0.026500,5.731350,2.672874,-0.016115,0.000000,0.967433
0.027000,5.732702,2.702697,-0.016126,0.000000,0.967429
0.027500,5.734067,2.730519,-0.016138,0.000000,0.967426
0.028000,5.735445,2.756432,-0.016149,0.000000,0.967423
0.028500,5.736835,2.780526,-0.016161,0.000000,0.967419
0.029000,5.738237,2.802887,-0.016173,0.000000,0.967416
0.029500,5.739648,2.823599,-0.016185,0.000000,0.967413
0.030000,5.741070,2.842743,-0.016198,0.000000,0.967409
0.030500,5.742500,2.860396,-0.016210,0.000000,0.967406
0.031000,5.743938,2.876633,-0.016223,0.000000,0.967403
0.031500,5.745384,2.891527,-0.016236,0.000000,0.967400
0.032000,5.746837,2.905147,-0.016249,0.000000,0.967397
0.032500,5.748295,2.917561,-0.016263,0.000000,0.967394
0.033000,5.749760,2.928833,-0.016276,0.000000,0.967391
0.033500,5.751229,2.939026,-0.016290,0.000000,0.967387
0.034000,5.752704,2.948199,-0.016304,0.000000,0.967384
0.034500,5.754182,2.956411,-0.016318,0.000000,0.967381
0.035000,5.755664,2.963716,-0.016333,0.000000,0.967378
0.035500,5.757149,2.970168,-0.016347,0.000000,0.967375
0.036000,5.758637,2.975819,-0.016362,0.000000,0.967372
0.036500,5.760127,2.980718,-0.016377,0.000000,0.967369
0.037000,5.761619,2.984911,-0.016392,0.000000,0.967366
0.037500,5.763114,2.988445,-0.016407,0.000000,0.967363
0.038000,5.764609,2.991363,-0.016422,0.000000,0.967360
0.038500,5.766106,2.993707,-0.016438,0.000000,0.967358
0.039000,5.767604,2.995517,-0.016454,0.000000,0.967355
0.039500,5.769102,2.996832,-0.016469,0.000000,0.967352
0.040000,5.770601,2.997688,-0.016486,0.000000,0.967349
0.040500,5.772100,2.998121,-0.016502,0.000000,0.967346
0.041000,5.773599,2.998164,-0.016518,0.000000,0.967343
0.041500,5.775098,2.997849,-0.016535,0.000000,0.967340
0.042000,5.776597,2.997209,-0.016552,0.000000,0.967337
0.042500,5.778095,2.996271,-0.016569,0.000000,0.967335
0.043000,5.779593,2.995064,-0.016586,0.000000,0.967332
0.043500,5.781089,2.993615,-0.016603,0.000000,0.967329
0.044000,5.782585,2.991949,-0.016620,0.000000,0.967326
0.044500,5.784080,2.990092,-0.016638,0.000000,0.967324
0.045000,5.785574,2.988065,-0.016656,0.000000,0.967321
0.045500,5.787067,2.985892,-0.016674,0.000000,0.967318
0.046000,5.788559,2.983593,-0.016692,0.000000,0.967315
0.046500,5.790050,2.981189,-0.016710,0.000000,0.967313
0.047000,5.791539,2.978697,-0.016729,0.000000,0.967310
0.047500,5.793027,2.976137,-0.016747,0.000000,0.967307
0.048000,5.794514,2.973525,-0.016766,0.000000,0.967305
0.048500,5.795999,2.970877,-0.016785,0.000000,0.967302
0.049000,5.797483,2.968208,-0.016804,0.000000,0.967299
0.049500,5.798966,2.965534,-0.016823,0.000000,0.967296
0.050000,5.800448,2.962867,-0.016843,0.000000,0.967294
0.050500,5.801928,2.960221,-0.016862,0.000000,0.967291
0.051000,5.803407,2.957606,-0.016882,0.000000,0.967288
0.051500,5.804884,2.955036,-0.016902,0.000000,0.967286
0.052000,5.806360,2.952519,-0.016922,0.000000,0.967283
0.052500,5.807835,2.950067,-0.016942,0.000000,0.967281
0.053000,5.809309,2.947688,-0.016962,0.000000,0.967278
0.053500,5.810782,2.945392,-0.016983,0.000000,0.967275
0.054000,5.812253,2.943185,-0.017003,0.000000,0.967273
0.054500,5.813724,2.941076,-0.017024,0.000000,0.967270
0.055000,5.815194,2.939072,-0.017045,0.000000,0.967267
0.055500,5.816662,2.937179,-0.017066,0.000000,0.967265
0.056000,5.818130,2.935402,-0.017087,0.000000,0.967262
0.056500,5.819597,2.933748,-0.017108,0.000000,0.967259
0.057000,5.821063,2.932221,-0.017130,0.000000,0.967257
0.057500,5.822528,2.930825,-0.017152,0.000000,0.967254
0.058000,5.823993,2.929566,-0.017173,0.000000,0.967252
0.058500,5.825457,2.928445,-0.017195,0.000000,0.967249
0.059000,5.826921,2.927467,-0.017217,0.000000,0.967246
0.059500,5.828384,2.926635,-0.017240,0.000000,0.967244
0.060000,5.829847,2.925950,-0.017262,0.000000,0.967241
0.060500,5.831310,2.925415,-0.017284,0.000000,0.967239
0.061000,5.832772,2.925033,-0.017307,0.000000,0.967236
0.061500,5.834235,2.924804,-0.017330,0.000000,0.967233
0.062000,5.835697,2.924729,-0.017353,0.000000,0.967231
0.062500,5.837160,2.924810,-0.017376,0.000000,0.967228
0.063000,5.838622,2.925048,-0.017399,0.000000,0.967226
0.063500,5.840085,2.925442,-0.017422,0.000000,0.967223
0.064000,5.841548,2.925993,-0.017445,0.000000,0.967220
0.064500,5.843011,2.926701,-0.017469,0.000000,0.967218
0.065000,5.844475,2.927565,-0.017493,0.000000,0.967215
0.065500,5.845939,2.928585,-0.017516,0.000000,0.967212
0.066000,5.847404,2.929761,-0.017540,0.000000,0.967210
0.066500,5.848870,2.931091,-0.017564,0.000000,0.967207
0.067000,5.850336,2.932574,-0.017588,0.000000,0.967204
0.067500,5.851803,2.934210,-0.017613,0.000000,0.967202
0.068000,5.853271,2.935996,-0.017637,0.000000,0.967199
0.068500,5.854740,2.937932,-0.017662,0.000000,0.967197
0.069000,5.856210,2.940016,-0.017686,0.000000,0.967194
0.069500,5.857681,2.942245,-0.017711,0.000000,0.967191
0.070000,5.859154,2.944618,-0.017736,0.000000,0.967189
0.070500,5.860627,2.947132,-0.017761,0.000000,0.967186
0.071000,5.862102,2.949787,-0.017786,0.000000,0.967183
0.071500,5.863578,2.952579,-0.017812,0.000000,0.967181
0.072000,5.865056,2.955506,-0.017837,0.000000,0.967178
0.072500,5.866535,2.958566,-0.017862,0.000000,0.967175
0.073000,5.868016,2.961756,-0.017888,0.000000,0.967173
0.073500,5.869499,2.965074,-0.017914,0.000000,0.967170
0.074000,5.870983,2.968517,-0.017940,0.000000,0.967167
0.074500,5.872469,2.972082,-0.017966,0.000000,0.967164
0.075000,5.873957,2.975766,-0.017992,0.000000,0.967162
0.075500,5.875447,2.979568,-0.018018,0.000000,0.967159
0.076000,5.876938,2.983483,-0.018044,0.000000,0.967156
0.076500,5.878432,2.987509,-0.018071,0.000000,0.967154
0.077000,5.879928,2.991643,-0.018097,0.000000,0.967151
0.077500,5.881426,2.995883,-0.018124,0.000000,0.967148
0.078000,5.882926,3.000224,-0.018150,0.000000,0.967145
0.078500,5.884428,3.004665,-0.018177,0.000000,0.967143
0.079000,5.885933,3.009201,-0.018204,0.000000,0.967140
0.079500,5.887440,3.013831,-0.018231,0.000000,0.967137
0.080000,5.888949,3.018551,-0.018258,0.000000,0.967134
0.080500,5.890461,3.023357,-0.018286,0.000000,0.967132
0.081000,5.891975,3.028247,-0.018313,0.000000,0.967129
0.081500,5.893492,3.033218,-0.018341,0.000000,0.967126
0.082000,5.895011,3.038267,-0.018368,0.000000,0.967123
0.082500,5.896532,3.043390,-0.018396,0.000000,0.967121
0.083000,5.898057,3.048584,-0.018424,0.000000,0.967118
0.083500,5.899584,3.053847,-0.018451,0.000000,0.967115
0.084000,5.901113,3.059175,-0.018479,0.000000,0.967112
0.084500,5.902646,3.064565,-0.018507,0.000000,0.967109
0.085000,5.904181,3.070015,-0.018536,0.000000,0.967107
0.085500,5.905718,3.075521,-0.018564,0.000000,0.967104
0.086000,5.907259,3.081080,-0.018592,0.000000,0.967101
0.086500,5.908802,3.086689,-0.018621,0.000000,0.967098
0.087000,5.910348,3.092346,-0.018649,0.000000,0.967095
0.087500,5.911897,3.098046,-0.018678,0.000000,0.967092
0.088000,5.913449,3.103788,-0.018706,0.000000,0.967089
0.088500,5.915004,3.109569,-0.018735,0.000000,0.967087
0.089000,5.916562,3.115385,-0.018764,0.000000,0.967084
0.089500,5.918122,3.121234,-0.018793,0.000000,0.967081
0.090000,5.919686,3.127113,-0.018822,0.000000,0.967078
0.090500,5.921252,3.133019,-0.018851,0.000000,0.967075
0.091000,5.922822,3.138950,-0.018880,0.000000,0.967072
0.091500,5.924394,3.144902,-0.018910,0.000000,0.967069
0.092000,5.925970,3.150873,-0.018939,0.000000,0.967066
0.092500,5.927548,3.156861,-0.018969,0.000000,0.967063
0.093000,5.929130,3.162862,-0.018998,0.000000,0.967060
0.093500,5.930714,3.168874,-0.019028,0.000000,0.967057
0.094000,5.932302,3.174895,-0.019058,0.000000,0.967055
0.094500,5.933892,3.180922,-0.019087,0.000000,0.967052
0.095000,5.935485,3.186953,-0.019117,0.000000,0.967049
0.095500,5.937082,3.192984,-0.019147,0.000000,0.967046
0.096000,5.938681,3.199015,-0.019177,0.000000,0.967043
0.096500,5.940284,3.205041,-0.019207,0.000000,0.967040
0.097000,5.941890,3.211062,-0.019238,0.000000,0.967037
0.097500,5.943498,3.217074,-0.019268,0.000000,0.967034
0.098000,5.945110,3.223075,-0.019298,0.000000,0.967031
0.098500,5.946724,3.229064,-0.019329,0.000000,0.967028
0.099000,5.948342,3.235038,-0.019359,0.000000,0.967025
0.099500,5.949962,3.240994,-0.019390,0.000000,0.967022
0.100000,5.951586,3.246931,-0.019420,0.000000,0.967019
0.100500,5.953212,3.252846,-0.019451,0.000000,0.967016
0.101000,5.954841,3.258738,-0.019482,0.000000,0.967013
0.101500,5.956474,3.264605,-0.019513,0.000000,0.967010
0.102000,5.958109,3.270444,-0.019543,0.000000,0.967007
0.102500,5.959747,3.276253,-0.019574,0.000000,0.967003
0.103000,5.961388,3.282032,-0.019605,0.000000,0.967000
0.103500,5.963032,3.287777,-0.019637,0.000000,0.966997
0.104000,5.964679,3.293486,-0.019668,0.000000,0.966994
0.104500,5.966328,3.299159,-0.019699,0.000000,0.966991
0.105000,5.967981,3.304794,-0.019730,0.000000,0.966988
0.105500,5.969636,3.310388,-0.019762,0.000000,0.966985
0.106000,5.971294,3.315940,-0.019793,0.000000,0.966982
0.106500,5.972955,3.321448,-0.019824,0.000000,0.966979
0.107000,5.974618,3.326911,-0.019856,0.000000,0.966976
0.107500,5.976284,3.332327,-0.019888,0.000000,0.966973
0.108000,5.977953,3.337694,-0.019919,0.000000,0.966969
0.108500,5.979625,3.343011,-0.019951,0.000000,0.966966
0.109000,5.981299,3.348277,-0.019983,0.000000,0.966963
0.109500,5.982975,3.353490,-0.020014,0.000000,0.966960
0.110000,5.984655,3.358648,-0.020046,0.000000,0.966957
0.110500,5.986337,3.363751,-0.020078,0.000000,0.966954
0.111000,5.988021,3.368796,-0.020110,0.000000,0.966951
0.111500,5.989708,3.373783,-0.020142,0.000000,0.966947
0.112000,5.991397,3.378710,-0.020174,0.000000,0.966944
0.112500,5.993089,3.383576,-0.020206,0.000000,0.966941
0.113000,5.994783,3.388379,-0.020239,0.000000,0.966938
0.113500,5.996480,3.393119,-0.020271,0.000000,0.966935
0.114000,5.998179,3.397794,-0.020303,0.000000,0.966932
0.114500,5.999880,3.402403,-0.020335,0.000000,0.966928
0.115000,6.001583,3.406945,-0.020368,0.000000,0.966925
0.115500,6.003289,3.411419,-0.020400,0.000000,0.966922
0.116000,6.004997,3.415823,-0.020433,0.000000,0.966919
0.116500,6.006707,3.420157,-0.020465,0.000000,0.966916
0.117000,6.008419,3.424420,-0.020498,0.000000,0.966912
0.117500,6.010134,3.428610,-0.020530,0.000000,0.966909
0.118000,6.011850,3.432727,-0.020563,0.000000,0.966906
0.118500,6.013568,3.436770,-0.020595,0.000000,0.966903
0.119000,6.015289,3.440737,-0.020628,0.000000,0.966899
0.119500,6.017011,3.444629,-0.020661,0.000000,0.966896
0.120000,6.018735,3.448443,-0.020694,0.000000,0.966893
0.120500,6.020461,3.452179,-0.020726,0.000000,0.966890
0.121000,6.022189,3.455837,-0.020759,0.000000,0.966886
0.121500,6.023919,3.459415,-0.020792,0.000000,0.966883
0.122000,6.025650,3.462912,-0.020825,0.000000,0.966880
0.122500,6.027384,3.466329,-0.020858,0.000000,0.966877
0.123000,6.029118,3.469663,-0.020891,0.000000,0.966873
0.123500,6.030855,3.472915,-0.020924,0.000000,0.966870
0.124000,6.032593,3.476084,-0.020957,0.000000,0.966867
0.124500,6.034333,3.479169,-0.020990,0.000000,0.966863
0.125000,6.036074,3.482169,-0.021023,0.000000,0.966860
0.125500,6.037816,3.485083,-0.021056,0.000000,0.966857
0.126000,6.039560,3.487912,-0.021090,0.000000,0.966854
0.126500,6.041305,3.490654,-0.021123,0.000000,0.966850
0.127000,6.043052,3.493309,-0.021156,0.000000,0.966847
0.127500,6.044800,3.495876,-0.021189,0.000000,0.966844
0.128000,6.046549,3.498354,-0.021222,0.000000,0.966840
0.128500,6.048300,3.500744,-0.021256,0.000000,0.966837
0.129000,6.050051,3.503044,-0.021289,0.000000,0.966834
0.129500,6.051804,3.505255,-0.021322,0.000000,0.966830
0.130000,6.053557,3.507374,-0.021356,0.000000,0.966827
0.130500,6.055312,3.509403,-0.021389,0.000000,0.966824
0.131000,6.057068,3.511341,-0.021422,0.000000,0.966820
0.131500,6.058824,3.513186,-0.021456,0.000000,0.966817
0.132000,6.060582,3.514939,-0.021489,0.000000,0.966814
0.132500,6.062340,3.516599,-0.021523,0.000000,0.966810
0.133000,6.064099,3.518167,-0.021556,0.000000,0.966807
0.133500,6.065859,3.519640,-0.021590,0.000000,0.966804
0.134000,6.067620,3.521020,-0.021623,0.000000,0.966800
0.134500,6.069381,3.522305,-0.021657,0.000000,0.966797
0.135000,6.071142,3.523495,-0.021690,0.000000,0.966794
0.135500,6.072905,3.524590,-0.021724,0.000000,0.966790
0.136000,6.074668,3.525590,-0.021757,0.000000,0.966787
0.136500,6.076431,3.526494,-0.021791,0.000000,0.966784
0.137000,6.078194,3.527302,-0.021824,0.000000,0.966780
0.137500,6.079958,3.528013,-0.021858,0.000000,0.966777
0.138000,6.081723,3.528628,-0.021892,0.000000,0.966774
0.138500,6.083487,3.529145,-0.021925,0.000000,0.966770
0.139000,6.085252,3.529565,-0.021959,0.000000,0.966767
0.139500,6.087017,3.529888,-0.021992,0.000000,0.966764
0.140000,6.088782,3.530113,-0.022026,0.000000,0.966760
0.140500,6.090547,3.530239,-0.022060,0.000000,0.966757
0.141000,6.092312,3.530268,-0.022093,0.000000,0.966753
0.141500,6.094077,3.530197,-0.022127,0.000000,0.966750
0.142000,6.095842,3.530028,-0.022160,0.000000,0.966747
0.142500,6.097607,3.529760,-0.022194,0.000000,0.966743
0.143000,6.099372,3.529392,-0.022228,0.000000,0.966740
0.143500,6.101137,3.528925,-0.022261,0.000000,0.966737
0.144000,6.102901,3.528358,-0.022295,0.000000,0.966733
0.144500,6.104665,3.527691,-0.022328,0.000000,0.966730
0.145000,6.106428,3.526924,-0.022362,0.000000,0.966727
0.145500,6.108191,3.526057,-0.022396,0.000000,0.966723
0.146000,6.109954,3.525090,-0.022429,0.000000,0.966720
0.146500,6.111716,3.524022,-0.022463,0.000000,0.966716
0.147000,6.113477,3.522853,-0.022497,0.000000,0.966713
0.147500,6.115238,3.521583,-0.022530,0.000000,0.966710
0.148000,6.116998,3.520212,-0.022564,0.000000,0.966706
0.148500,6.118757,3.518740,-0.022597,0.000000,0.966703
0.149000,6.120516,3.517167,-0.022631,0.000000,0.966700
0.149500,6.122274,3.515492,-0.022664,0.000000,0.966696
0.150000,6.124030,3.513715,-0.022698,0.000000,0.966693
0.150500,6.125786,3.511837,-0.022731,0.000000,0.966689
0.151000,6.127541,3.509856,-0.022765,0.000000,0.966686
0.151500,6.129295,3.507774,-0.022798,0.000000,0.966683
0.152000,6.131048,3.505590,-0.022832,0.000000,0.966679
0.152500,6.132800,3.503303,-0.022865,0.000000,0.966676
0.153000,6.134550,3.500915,-0.022899,0.000000,0.966673
0.153500,6.136299,3.498423,-0.022932,0.000000,0.966669
0.154000,6.138047,3.495830,-0.022966,0.000000,0.966666
0.154500,6.139794,3.493133,-0.022999,0.000000,0.966662
0.155000,6.141539,3.490334,-0.023032,0.000000,0.966659
0.155500,6.143283,3.487433,-0.023066,0.000000,0.966656
0.156000,6.145025,3.484428,-0.023099,0.000000,0.966652
0.156500,6.146766,3.481321,-0.023132,0.000000,0.966649
0.157000,6.148505,3.478110,-0.023166,0.000000,0.966646
0.157500,6.150242,3.474797,-0.023199,0.000000,0.966642
0.158000,6.151978,3.471380,-0.023232,0.000000,0.966639
0.158500,6.153712,3.467860,-0.023265,0.000000,0.966636
0.159000,6.155444,3.464237,-0.023299,0.000000,0.966632
0.159500,6.157174,3.460511,-0.023332,0.000000,0.966629
0.160000,6.158902,3.456681,-0.023365,0.000000,0.966625
0.160500,6.160629,3.452748,-0.023398,0.000000,0.966622
0.161000,6.162353,3.448712,-0.023431,0.000000,0.966619
0.161500,6.164075,3.444571,-0.023464,0.000000,0.966615
0.162000,6.165796,3.440328,-0.023497,0.000000,0.966612
0.162500,6.167514,3.435980,-0.023530,0.000000,0.966609
0.163000,6.169229,3.431529,-0.023563,0.000000,0.966605
0.163500,6.170943,3.426974,-0.023596,0.000000,0.966602
0.164000,6.172654,3.422316,-0.023629,0.000000,0.966599
0.164500,6.174363,3.417554,-0.023662,0.000000,0.966595
0.165000,6.176069,3.412688,-0.023695,0.000000,0.966592
0.165500,6.177773,3.407718,-0.023727,0.000000,0.966589
0.166000,6.179474,3.402644,-0.023760,0.000000,0.966585
0.166500,6.181173,3.397466,-0.023793,0.000000,0.966582
0.167000,6.182869,3.392184,-0.023825,0.000000,0.966579
0.167500,6.184562,3.386798,-0.023858,0.000000,0.966576
0.168000,6.186253,3.381308,-0.023891,0.000000,0.966572
0.168500,6.187941,3.375714,-0.023923,0.000000,0.966569
0.169000,6.189626,3.370016,-0.023956,0.000000,0.966566
0.169500,6.191308,3.364214,-0.023988,0.000000,0.966562
0.170000,6.192987,3.358308,-0.024021,0.000000,0.966559
0.170500,6.194663,3.352298,-0.024053,0.000000,0.966556
0.171000,6.196336,3.346183,-0.024085,0.000000,0.966553
0.171500,6.198006,3.339964,-0.024118,0.000000,0.966549
0.172000,6.199673,3.333641,-0.024150,0.000000,0.966546
0.172500,6.201337,3.327214,-0.024182,0.000000,0.966543
0.173000,6.202997,3.320683,-0.024214,0.000000,0.966539
0.173500,6.204654,3.314047,-0.024246,0.000000,0.966536
0.174000,6.206308,3.307307,-0.024278,0.000000,0.966533
0.174500,6.207958,3.300462,-0.024310,0.000000,0.966530
0.175000,6.209605,3.293514,-0.024342,0.000000,0.966526
0.175500,6.211248,3.286460,-0.024374,0.000000,0.966523
0.176000,6.212888,3.279303,-0.024406,0.000000,0.966520
0.176500,6.214524,3.272041,-0.024438,0.000000,0.966517
0.177000,6.216156,3.264674,-0.024469,0.000000,0.966514
0.177500,6.217785,3.257204,-0.024501,0.000000,0.966510
0.178000,6.219410,3.249628,-0.024533,0.000000,0.966507
0.178500,6.221031,3.241949,-0.024564,0.000000,0.966504
0.179000,6.222648,3.234164,-0.024596,0.000000,0.966501
0.179500,6.224261,3.226276,-0.024627,0.000000,0.966497
0.180000,6.225870,3.218282,-0.024658,0.000000,0.966494
