time(s),ankle_angle(deg),ankle_velocity(deg/s),body_com_x(m),body_com_y(m),body_com_z(m)
0.000000,-1.718873,22.918312,0.102343,0.000000,0.971734
0.000500,-1.711545,14.656109,0.102343,0.000000,0.971734
0.001000,-1.703404,16.282869,0.102161,0.000000,0.971737
0.001500,-1.695067,16.674205,0.101979,0.000000,0.971738
0.002000,-1.686542,17.049971,0.101798,0.000000,0.971738
0.002500,-1.677837,17.410615,0.101616,0.000000,0.971739
0.003000,-1.668958,17.756577,0.101434,0.000000,0.971740
0.003500,-1.659914,18.088287,0.101252,0.000000,0.971741
0.004000,-1.650711,18.406166,0.101071,0.000000,0.971741
0.004500,-1.641356,18.710625,0.100889,0.000000,0.971742
0.005000,-1.631855,19.002067,0.100708,0.000000,0.971743
0.005500,-1.622214,19.280884,0.100527,0.000000,0.971744
0.006000,-1.612440,19.547462,0.100346,0.000000,0.971745
0.006500,-1.602539,19.802176,0.100164,0.000000,0.971746
0.007000,-1.592517,20.045393,0.099983,0.000000,0.971746
0.007500,-1.582378,20.277471,0.099803,0.000000,0.971747
0.008000,-1.572129,20.498761,0.099622,0.000000,0.971748
0.008500,-1.561774,20.709603,0.099441,0.000000,0.971749
0.009000,-1.551319,20.910332,0.099260,0.000000,0.971750
0.009500,-1.540768,21.101271,0.099080,0.000000,0.971751
0.010000,-1.530127,21.282739,0.098899,0.000000,0.971753
0.010500,-1.519399,21.455045,0.098719,0.000000,0.971754
0.011000,-1.508590,21.618491,0.098538,0.000000,0.971755
0.011500,-1.497703,21.773370,0.098358,0.000000,0.971756
0.012000,-1.486743,21.919968,0.098178,0.000000,0.971757
0.012500,-1.475714,22.058566,0.097998,0.000000,0.971758
0.013000,-1.464619,22.189435,0.097818,0.000000,0.971760
0.013500,-1.453463,22.312840,0.097638,0.000000,0.971761
0.014000,-1.442248,22.429038,0.097458,0.000000,0.971762
0.014500,-1.430979,22.538281,0.097279,0.000000,0.971763
0.015000,-1.419659,22.640813,0.097099,0.000000,0.971765
0.015500,-1.408290,22.736871,0.096920,0.000000,0.971766
0.016000,-1.396877,22.826687,0.096740,0.000000,0.971768
0.016500,-1.385422,22.910486,0.096561,0.000000,0.971769
0.017000,-1.373927,22.988486,0.096382,0.000000,0.971770
0.017500,-1.362397,23.060899,0.096202,0.000000,0.971772
0.018000,-1.350833,23.127933,0.096023,0.000000,0.971773
0.018500,-1.339238,23.189789,0.095845,0.000000,0.971775
0.019000,-1.327615,23.246660,0.095666,0.000000,0.971776
0.019500,-1.315965,23.298736,0.095487,0.000000,0.971778
0.020000,-1.304292,23.346202,0.095308,0.000000,0.971780
0.020500,-1.292598,23.389236,0.095130,0.000000,0.971781
0.021000,-1.280884,23.428010,0.094951,0.000000,0.971783
0.021500,-1.269152,23.462694,0.094773,0.000000,0.971784
0.022000,-1.257406,23.493450,0.094595,0.000000,0.971786
0.022500,-1.245645,23.520437,0.094417,0.000000,0.971788
0.023000,-1.233873,23.543808,0.094238,0.000000,0.971789
0.023500,-1.222092,23.563711,0.094061,0.000000,0.971791
0.024000,-1.210301,23.580291,0.093883,0.000000,0.971793
0.024500,-1.198505,23.593687,0.093705,0.000000,0.971794
0.025000,-1.186703,23.604035,0.093527,0.000000,0.971796
0.025500,-1.174897,23.611466,0.093350,0.000000,0.971798
0.026000,-1.163089,23.616106,0.093172,0.000000,0.971800
0.026500,-1.151280,23.618079,0.092995,0.000000,0.971801
0.027000,-1.139471,23.617502,0.092818,0.000000,0.971803
0.027500,-1.127664,23.614492,0.092641,0.000000,0.971805
0.028000,-1.115859,23.609159,0.092463,0.000000,0.971807
0.028500,-1.104058,23.601611,0.092287,0.000000,0.971808
0.029000,-1.092262,23.591952,0.092110,0.000000,0.971810
0.029500,-1.080472,23.580282,0.091933,0.000000,0.971812
0.030000,-1.068689,23.566698,0.091756,0.000000,0.971814
0.030500,-1.056913,23.551295,0.091580,0.000000,0.971816
0.031000,-1.045146,23.534162,0.091403,0.000000,0.971817
0.031500,-1.033389,23.515387,0.091227,0.000000,0.971819
0.032000,-1.021641,23.495054,0.091051,0.000000,0.971821
0.032500,-1.009904,23.473245,0.090875,0.000000,0.971823
0.033000,-0.998179,23.450038,0.090699,0.000000,0.971825
0.033500,-0.986467,23.425510,0.090523,0.000000,0.971826
0.034000,-0.974767,23.399731,0.090347,0.000000,0.971828
0.034500,-0.963080,23.372774,0.090172,0.000000,0.971830
0.035000,-0.951408,23.344706,0.089996,0.000000,0.971832
0.035500,-0.939750,23.315591,0.089821,0.000000,0.971834
0.036000,-0.928107,23.285493,0.089645,0.000000,0.971835
0.036500,-0.916480,23.254472,0.089470,0.000000,0.971837
0.037000,-0.904869,23.222586,0.089295,0.000000,0.971839
0.037500,-0.893274,23.189891,0.089120,0.000000,0.971841
0.038000,-0.881696,23.156440,0.088945,0.000000,0.971842
0.038500,-0.870135,23.122284,0.088770,0.000000,0.971844
0.039000,-0.858591,23.087475,0.088596,0.000000,0.971846
0.039500,-0.847065,23.052058,0.088421,0.000000,0.971848
0.040000,-0.835557,23.016079,0.088247,0.000000,0.971849
0.040500,-0.824067,22.979582,0.088072,0.000000,0.971851
0.041000,-0.812596,22.942610,0.087898,0.000000,0.971853
0.041500,-0.801143,22.905201,0.087724,0.000000,0.971855
0.042000,-0.789709,22.867396,0.087550,0.000000,0.971856
0.042500,-0.778295,22.829229,0.087376,0.000000,0.971858
0.043000,-0.766899,22.790737,0.087202,0.000000,0.971860
0.043500,-0.755523,22.751953,0.087029,0.000000,0.971861
0.044000,-0.744167,22.712909,0.086855,0.000000,0.971863
0.044500,-0.732830,22.673636,0.086682,0.000000,0.971865
0.045000,-0.721513,22.634163,0.086508,0.000000,0.971866
0.045500,-0.710216,22.594518,0.086335,0.000000,0.971868
0.046000,-0.698938,22.554728,0.086162,0.000000,0.971870
0.046500,-0.687681,22.514818,0.085989,0.000000,0.971871
0.047000,-0.676444,22.474812,0.085817,0.000000,0.971873
0.047500,-0.665226,22.434734,0.085644,0.000000,0.971874
0.048000,-0.654029,22.394604,0.085471,0.000000,0.971876
0.048500,-0.642852,22.354444,0.085299,0.000000,0.971877
0.049000,-0.631695,22.314273,0.085127,0.000000,0.971879
0.049500,-0.620558,22.274110,0.084954,0.000000,0.971880
0.050000,-0.609441,22.233973,0.084782,0.000000,0.971882
0.050500,-0.598344,22.193877,0.084610,0.000000,0.971883
0.051000,-0.587267,22.153840,0.084438,0.000000,0.971885
0.051500,-0.576210,22.113875,0.084267,0.000000,0.971886
0.052000,-0.565173,22.073996,0.084095,0.000000,0.971887
0.052500,-0.554156,22.034217,0.083924,0.000000,0.971889
0.053000,-0.543158,21.994551,0.083752,0.000000,0.971890
0.053500,-0.532181,21.955007,0.083581,0.000000,0.971892
0.054000,-0.521223,21.915599,0.083410,0.000000,0.971893
0.054500,-0.510285,21.876335,0.083239,0.000000,0.971894
0.055000,-0.499366,21.837225,0.083068,0.000000,0.971895
0.055500,-0.488467,21.798278,0.082898,0.000000,0.971897
0.056000,-0.477587,21.759501,0.082727,0.000000,0.971898
0.056500,-0.466727,21.720904,0.082556,0.000000,0.971899
0.057000,-0.455886,21.682491,0.082386,0.000000,0.971900
0.057500,-0.445064,21.644271,0.082216,0.000000,0.971902
0.058000,-0.434260,21.606248,0.082046,0.000000,0.971903
0.058500,-0.423476,21.568429,0.081876,0.000000,0.971904
0.059000,-0.412711,21.530817,0.081706,0.000000,0.971905
0.059500,-0.401964,21.493418,0.081536,0.000000,0.971906
0.060000,-0.391236,21.456235,0.081367,0.000000,0.971907
0.060500,-0.380526,21.419272,0.081197,0.000000,0.971908
0.061000,-0.369835,21.382532,0.081028,0.000000,0.971909
0.061500,-0.359162,21.346017,0.080859,0.000000,0.971910
0.062000,-0.348507,21.309731,0.080690,0.000000,0.971911
0.062500,-0.337870,21.273674,0.080521,0.000000,0.971912
0.063000,-0.327251,21.237848,0.080352,0.000000,0.971913
0.063500,-0.316650,21.202256,0.080184,0.000000,0.971914
0.064000,-0.306067,21.166897,0.080015,0.000000,0.971915
0.064500,-0.295501,21.131773,0.079847,0.000000,0.971916
0.065000,-0.284953,21.096883,0.079679,0.000000,0.971917
0.065500,-0.274421,21.062228,0.079511,0.000000,0.971917
0.066000,-0.263908,21.027808,0.079343,0.000000,0.971918
0.066500,-0.253411,20.993623,0.079175,0.000000,0.971919
0.067000,-0.242931,20.959671,0.079007,0.000000,0.971920
0.067500,-0.232468,20.925952,0.078840,0.000000,0.971920
0.068000,-0.222022,20.892466,0.078672,0.000000,0.971921
0.068500,-0.211592,20.859210,0.078505,0.000000,0.971922
0.069000,-0.201179,20.826183,0.078338,0.000000,0.971922
0.069500,-0.190782,20.793384,0.078171,0.000000,0.971923
0.070000,-0.180402,20.760810,0.078004,0.000000,0.971924
0.070500,-0.170038,20.728461,0.077837,0.000000,0.971924
0.071000,-0.159690,20.696334,0.077671,0.000000,0.971925
0.071500,-0.149357,20.664427,0.077504,0.000000,0.971925
0.072000,-0.139041,20.632737,0.077338,0.000000,0.971926
0.072500,-0.128740,20.601262,0.077172,0.000000,0.971926
0.073000,-0.118455,20.570000,0.077006,0.000000,0.971927
0.073500,-0.108186,20.538947,0.076840,0.000000,0.971927
0.074000,-0.097932,20.508102,0.076674,0.000000,0.971927
0.074500,-0.087693,20.477461,0.076509,0.000000,0.971928
0.075000,-0.077470,20.447021,0.076343,0.000000,0.971928
0.075500,-0.067261,20.416779,0.076178,0.000000,0.971928
0.076000,-0.057068,20.386733,0.076013,0.000000,0.971929
0.076500,-0.046889,20.356879,0.075848,0.000000,0.971929
0.077000,-0.036726,20.327214,0.075683,0.000000,0.971929
0.077500,-0.026577,20.297735,0.075519,0.000000,0.971929
0.078000,-0.016443,20.268438,0.075354,0.000000,0.971930
0.078500,-0.006323,20.239320,0.075190,0.000000,0.971930
0.079000,0.003782,20.210378,0.075025,0.000000,0.971930
0.079500,0.013873,20.181609,0.074861,0.000000,0.971930
0.080000,0.023949,20.153008,0.074697,0.000000,0.971930
0.080500,0.034012,20.124573,0.074534,0.000000,0.971930
0.081000,0.044060,20.096300,0.074370,0.000000,0.971930
0.081500,0.054094,20.068186,0.074206,0.000000,0.971930
0.082000,0.064114,20.040227,0.074043,0.000000,0.971930
0.082500,0.074120,20.012419,0.073880,0.000000,0.971930
0.083000,0.084113,19.984760,0.073717,0.000000,0.971930
0.083500,0.094091,19.957245,0.073554,0.000000,0.971930
0.084000,0.104056,19.929871,0.073391,0.000000,0.971930
0.084500,0.114008,19.902635,0.073229,0.000000,0.971930
0.085000,0.123945,19.875533,0.073066,0.000000,0.971929
0.085500,0.133870,19.848562,0.072904,0.000000,0.971929
0.086000,0.143781,19.821718,0.072742,0.000000,0.971929
0.086500,0.153678,19.794997,0.072580,0.000000,0.971929
0.087000,0.163562,19.768397,0.072418,0.000000,0.971928
0.087500,0.173433,19.741914,0.072257,0.000000,0.971928
0.088000,0.183291,19.715544,0.072095,0.000000,0.971928
0.088500,0.193136,19.689284,0.071934,0.000000,0.971927
0.089000,0.202967,19.663131,0.071773,0.000000,0.971927
0.089500,0.212786,19.637082,0.071611,0.000000,0.971927
0.090000,0.222591,19.611133,0.071451,0.000000,0.971926
0.090500,0.232384,19.585280,0.071290,0.000000,0.971926
0.091000,0.242164,19.559521,0.071129,0.000000,0.971925
0.091500,0.251931,19.533853,0.070969,0.000000,0.971925
0.092000,0.261685,19.508271,0.070809,0.000000,0.971924
0.092500,0.271426,19.482774,0.070649,0.000000,0.971924
0.093000,0.281155,19.457358,0.070489,0.000000,0.971923
0.093500,0.290871,19.432020,0.070329,0.000000,0.971922
0.094000,0.300574,19.406756,0.070170,0.000000,0.971922
0.094500,0.310265,19.381564,0.070010,0.000000,0.971921
0.095000,0.319943,19.356441,0.069851,0.000000,0.971920
0.095500,0.329609,19.331384,0.069692,0.000000,0.971920
0.096000,0.339262,19.306391,0.069533,0.000000,0.971919
0.096500,0.348903,19.281457,0.069374,0.000000,0.971918
0.097000,0.358531,19.256580,0.069216,0.000000,0.971917
0.097500,0.368147,19.231759,0.069057,0.000000,0.971917
0.098000,0.377750,19.206989,0.068899,0.000000,0.971916
0.098500,0.387342,19.182268,0.068741,0.000000,0.971915
0.099000,0.396920,19.157593,0.068583,0.000000,0.971914
0.099500,0.406487,19.132963,0.068425,0.000000,0.971913
0.100000,0.416041,19.108374,0.068268,0.000000,0.971912
0.100500,0.425583,19.083823,0.068110,0.000000,0.971911
0.101000,0.435113,19.059309,0.067953,0.000000,0.971910
0.101500,0.444630,19.034829,0.067796,0.000000,0.971909
0.102000,0.454135,19.010380,0.067639,0.000000,0.971908
0.102500,0.463628,18.985960,0.067482,0.000000,0.971907
0.103000,0.473109,18.961566,0.067326,0.000000,0.971906
0.103500,0.482578,18.937197,0.067169,0.000000,0.971905
0.104000,0.492034,18.912851,0.067013,0.000000,0.971904
0.104500,0.501478,18.888524,0.066857,0.000000,0.971902
0.105000,0.510910,18.864214,0.066701,0.000000,0.971901
0.105500,0.520330,18.839921,0.066545,0.000000,0.971900
0.106000,0.529738,18.815641,0.066390,0.000000,0.971899
0.106500,0.539134,18.791372,0.066234,0.000000,0.971897
0.107000,0.548517,18.767113,0.066079,0.000000,0.971896
0.107500,0.557889,18.742861,0.065924,0.000000,0.971895
0.108000,0.567248,18.718615,0.065769,0.000000,0.971893
0.108500,0.576595,18.694372,0.065615,0.000000,0.971892
0.109000,0.585930,18.670132,0.065460,0.000000,0.971891
0.109500,0.595253,18.645891,0.065306,0.000000,0.971889
0.110000,0.604564,18.621648,0.065152,0.000000,0.971888
0.110500,0.613863,18.597401,0.064998,0.000000,0.971886
0.111000,0.623149,18.573149,0.064844,0.000000,0.971885
0.111500,0.632424,18.548890,0.064691,0.000000,0.971883
0.112000,0.641686,18.524623,0.064537,0.000000,0.971882
0.112500,0.650936,18.500345,0.064384,0.000000,0.971880
0.113000,0.660174,18.476055,0.064231,0.000000,0.971879
0.113500,0.669400,18.451752,0.064078,0.000000,0.971877
0.114000,0.678614,18.427434,0.063926,0.000000,0.971876
0.114500,0.687816,18.403099,0.063773,0.000000,0.971874
0.115000,0.697005,18.378747,0.063621,0.000000,0.971872
0.115500,0.706182,18.354375,0.063469,0.000000,0.971871
0.116000,0.715347,18.329982,0.063317,0.000000,0.971869
0.116500,0.724500,18.305568,0.063165,0.000000,0.971867
0.117000,0.733640,18.281130,0.063013,0.000000,0.971865
0.117500,0.742769,18.256668,0.062862,0.000000,0.971864
0.118000,0.751885,18.232179,0.062711,0.000000,0.971862
0.118500,0.760989,18.207663,0.062560,0.000000,0.971860
0.119000,0.770080,18.183119,0.062409,0.000000,0.971858
0.119500,0.779160,18.158546,0.062258,0.000000,0.971856
0.120000,0.788226,18.133942,0.062108,0.000000,0.971854
0.120500,0.797281,18.109306,0.061958,0.000000,0.971853
0.121000,0.806323,18.084637,0.061808,0.000000,0.971851
0.121500,0.815353,18.059934,0.061658,0.000000,0.971849
0.122000,0.824371,18.035196,0.061508,0.000000,0.971847
0.122500,0.833376,18.010422,0.061358,0.000000,0.971845
0.123000,0.842369,17.985611,0.061209,0.000000,0.971843
0.123500,0.851349,17.960761,0.061060,0.000000,0.971841
0.124000,0.860317,17.935873,0.060911,0.000000,0.971839
0.124500,0.869273,17.910945,0.060762,0.000000,0.971837
0.125000,0.878216,17.885976,0.060614,0.000000,0.971834
0.125500,0.887146,17.860966,0.060466,0.000000,0.971832
0.126000,0.896064,17.835913,0.060317,0.000000,0.971830
0.126500,0.904970,17.810816,0.060169,0.000000,0.971828
0.127000,0.913863,17.785676,0.060022,0.000000,0.971826
0.127500,0.922743,17.760490,0.059874,0.000000,0.971824
0.128000,0.931610,17.735259,0.059727,0.000000,0.971821
0.128500,0.940465,17.709981,0.059580,0.000000,0.971819
0.129000,0.949308,17.684656,0.059433,0.000000,0.971817
0.129500,0.958137,17.659283,0.059286,0.000000,0.971815
0.130000,0.966954,17.633861,0.059139,0.000000,0.971812
0.130500,0.975758,17.608390,0.058993,0.000000,0.971810
0.131000,0.984550,17.582869,0.058847,0.000000,0.971808
0.131500,0.993329,17.557297,0.058701,0.000000,0.971805
0.132000,1.002094,17.531674,0.058555,0.000000,0.971803
0.132500,1.010847,17.505999,0.058409,0.000000,0.971801
0.133000,1.019588,17.480271,0.058264,0.000000,0.971798
0.133500,1.028315,17.454491,0.058119,0.000000,0.971796
0.134000,1.037029,17.428657,0.057974,0.000000,0.971793
0.134500,1.045730,17.402769,0.057829,0.000000,0.971791
0.135000,1.054419,17.376826,0.057684,0.000000,0.971788
0.135500,1.063094,17.350827,0.057540,0.000000,0.971786
0.136000,1.071757,17.324773,0.057396,0.000000,0.971783
0.136500,1.080406,17.298663,0.057252,0.000000,0.971781
0.137000,1.089042,17.272496,0.057108,0.000000,0.971778
0.137500,1.097665,17.246272,0.056965,0.000000,0.971776
0.138000,1.106275,17.219990,0.056821,0.000000,0.971773
0.138500,1.114872,17.193651,0.056678,0.000000,0.971770
0.139000,1.123456,17.167252,0.056535,0.000000,0.971768
0.139500,1.132026,17.140795,0.056393,0.000000,0.971765
0.140000,1.140583,17.114279,0.056250,0.000000,0.971762
0.140500,1.149127,17.087702,0.056108,0.000000,0.971760
0.141000,1.157658,17.061066,0.055966,0.000000,0.971757
0.141500,1.166175,17.034369,0.055824,0.000000,0.971754
0.142000,1.174679,17.007612,0.055682,0.000000,0.971752
0.142500,1.183169,16.980793,0.055541,0.000000,0.971749
0.143000,1.191646,16.953912,0.055400,0.000000,0.971746
0.143500,1.200110,16.926970,0.055259,0.000000,0.971743
0.144000,1.208560,16.899966,0.055118,0.000000,0.971740
0.144500,1.216996,16.872899,0.054977,0.000000,0.971738
0.145000,1.225419,16.845769,0.054837,0.000000,0.971735
0.145500,1.233828,16.818576,0.054697,0.000000,0.971732
0.146000,1.242224,16.791320,0.054557,0.000000,0.971729
0.146500,1.250606,16.763999,0.054417,0.000000,0.971726
0.147000,1.258974,16.736615,0.054277,0.000000,0.971723
0.147500,1.267329,16.709167,0.054138,0.000000,0.971720
0.148000,1.275670,16.681654,0.053999,0.000000,0.971717
0.148500,1.283997,16.654077,0.053860,0.000000,0.971714
0.149000,1.292310,16.626434,0.053721,0.000000,0.971711
0.149500,1.300609,16.598727,0.053583,0.000000,0.971708
0.150000,1.308895,16.570953,0.053445,0.000000,0.971705
0.150500,1.317166,16.543115,0.053307,0.000000,0.971702
0.151000,1.325424,16.515210,0.053169,0.000000,0.971699
0.151500,1.333667,16.487239,0.053031,0.000000,0.971696
0.152000,1.341897,16.459201,0.052894,0.000000,0.971693
0.152500,1.350113,16.431097,0.052757,0.000000,0.971690
0.153000,1.358314,16.402927,0.052620,0.000000,0.971687
0.153500,1.366501,16.374689,0.052483,0.000000,0.971684
0.154000,1.374675,16.346384,0.052347,0.000000,0.971681
0.154500,1.382834,16.318012,0.052211,0.000000,0.971678
0.155000,1.390978,16.289572,0.052075,0.000000,0.971674
0.155500,1.399109,16.261065,0.051939,0.000000,0.971671
0.156000,1.407225,16.232490,0.051804,0.000000,0.971668
0.156500,1.415327,16.203847,0.051668,0.000000,0.971665
0.157000,1.423415,16.175135,0.051533,0.000000,0.971662
0.157500,1.431488,16.146355,0.051398,0.000000,0.971658
0.158000,1.439547,16.117507,0.051264,0.000000,0.971655
0.158500,1.447591,16.088590,0.051129,0.000000,0.971652
0.159000,1.455621,16.059604,0.050995,0.000000,0.971649
0.159500,1.463636,16.030550,0.050861,0.000000,0.971645
0.160000,1.471637,16.001426,0.050727,0.000000,0.971642
0.160500,1.479623,15.972233,0.050594,0.000000,0.971639
0.161000,1.487594,15.942971,0.050461,0.000000,0.971636
0.161500,1.495551,15.913639,0.050328,0.000000,0.971632
0.162000,1.503493,15.884237,0.050195,0.000000,0.971629
0.162500,1.511421,15.854766,0.050062,0.000000,0.971626
0.163000,1.519333,15.825225,0.049930,0.000000,0.971622
0.163500,1.527231,15.795613,0.049798,0.000000,0.971619
0.164000,1.535114,15.765932,0.049666,0.000000,0.971615
0.164500,1.542982,15.736181,0.049534,0.000000,0.971612
0.165000,1.550835,15.706359,0.049403,0.000000,0.971609
0.165500,1.558674,15.676466,0.049272,0.000000,0.971605
0.166000,1.566497,15.646503,0.049141,0.000000,0.971602
0.166500,1.574305,15.616470,0.049010,0.000000,0.971598
0.167000,1.582098,15.586365,0.048880,0.000000,0.971595
0.167500,1.589876,15.556190,0.048750,0.000000,0.971591
0.168000,1.597639,15.525943,0.048620,0.000000,0.971588
0.168500,1.605387,15.495626,0.048490,0.000000,0.971584
0.169000,1.613120,15.465237,0.048360,0.000000,0.971581
0.169500,1.620837,15.434777,0.048231,0.000000,0.971577
0.170000,1.628539,15.404246,0.048102,0.000000,0.971574
0.170500,1.636226,15.373643,0.047973,0.000000,0.971570
0.171000,1.643897,15.342968,0.047845,0.000000,0.971567
0.171500,1.651554,15.312222,0.047717,0.000000,0.971563
0.172000,1.659194,15.281404,0.047589,0.000000,0.971559
0.172500,1.666820,15.250514,0.047461,0.000000,0.971556
0.173000,1.674429,15.219552,0.047333,0.000000,0.971552
0.173500,1.682024,15.188518,0.047206,0.000000,0.971549
0.174000,1.689602,15.157412,0.047079,0.000000,0.971545
0.174500,1.697165,15.126233,0.046952,0.000000,0.971541
0.175000,1.704713,15.094983,0.046826,0.000000,0.971538
0.175500,1.712245,15.063660,0.046699,0.000000,0.971534
0.176000,1.719761,15.032264,0.046573,0.000000,0.971530
0.176500,1.727261,15.000796,0.046447,0.000000,0.971527
0.177000,1.734746,14.969255,0.046322,0.000000,0.971523
0.177500,1.742215,14.937641,0.046197,0.000000,0.971519
0.178000,1.749668,14.905955,0.046072,0.000000,0.971516
0.178500,1.757105,14.874195,0.045947,0.000000,0.971512
0.179000,1.764526,14.842363,0.045822,0.000000,0.971508
