time(s),ankle_torque(Nm),exo_torque(Nm),gravity_torque(Nm),ankle_rtd(Nm/s)
0.000000,-0.194500,-50.000000,-52.117068,-389.000000
0.000500,-0.389000,-50.000000,-52.117068,-389.000000
0.001000,-0.315000,50.000000,-53.345859,148.000000
0.001500,-0.509500,-50.000000,-50.919731,-389.000000
0.002000,-0.704000,-50.000000,-50.702702,-389.000000
0.002500,-0.898500,-50.000000,-50.503924,-389.000000
0.003000,-1.093000,-50.000000,-50.321986,-389.000000
0.003500,-1.287500,-50.000000,-50.494004,-389.000000
0.004000,-1.482000,-50.000000,-50.652659,-389.000000
0.004500,-1.408000,50.000000,-60.337294,148.000000
0.005000,-1.602500,-50.000000,-48.257730,-389.000000
0.005500,-1.797000,-50.000000,-48.648581,-389.000000
0.006000,-1.991500,-50.000000,-49.006700,-389.000000
0.006500,-2.186000,-50.000000,-49.334430,-389.000000
0.007000,-2.112000,50.000000,-62.581849,148.000000
0.007500,-2.038000,50.000000,-58.885498,148.000000
0.008000,-1.964000,50.000000,-55.812112,148.000000
0.008500,-2.158500,-50.000000,-48.116396,-389.000000
0.009000,-2.353000,-50.000000,-47.843695,-389.000000
0.009500,-2.547500,-50.000000,-48.286924,-389.000000
0.010000,-2.742000,-50.000000,-48.694107,-389.000000
0.010500,-2.936500,-50.000000,-49.067607,-389.000000
0.011000,-3.131000,-50.000000,-49.409674,-389.000000
0.011500,-3.325500,-50.000000,-49.722448,-389.000000
0.012000,-3.251500,50.000000,-59.582713,148.000000
0.012500,-3.177500,50.000000,-56.339418,148.000000
0.013000,-3.103500,50.000000,-53.671996,148.000000
0.013500,-3.029500,50.000000,-51.529280,148.000000
0.014000,-3.224000,-50.000000,-50.690199,-389.000000
0.014500,-3.418500,-50.000000,-50.847248,-389.000000
0.015000,-3.613000,-50.000000,-50.995803,-389.000000
0.015500,-3.807500,-50.000000,-51.135768,-389.000000
0.016000,-4.002000,-50.000000,-51.267142,-389.000000
0.016500,-4.196500,-50.000000,-51.390007,-389.000000
0.017000,-4.391000,-50.000000,-51.504515,-389.000000
0.017500,-4.317000,50.000000,-55.032426,148.000000
0.018000,-4.243000,50.000000,-52.301326,148.000000
0.018500,-4.169000,50.000000,-50.124268,148.000000
0.019000,-4.095000,50.000000,-48.450193,148.000000
0.019500,-4.289500,-50.000000,-53.269411,-389.000000
0.020000,-4.484000,-50.000000,-53.164828,-389.000000
0.020500,-4.678500,-50.000000,-53.075907,-389.000000
0.021000,-4.873000,-50.000000,-53.000609,-389.000000
0.021500,-5.067500,-50.000000,-52.937133,-389.000000
0.022000,-5.262000,-50.000000,-52.883892,-389.000000
0.022500,-5.456500,-50.000000,-52.839491,-389.000000
0.023000,-5.382500,50.000000,-52.321899,148.000000
0.023500,-5.308500,50.000000,-49.822437,148.000000
0.024000,-5.234500,50.000000,-47.880351,148.000000
0.024500,-5.429000,-50.000000,-53.341358,-389.000000
0.025000,-5.623500,-50.000000,-53.240411,-389.000000
0.025500,-5.818000,-50.000000,-53.153192,-389.000000
0.026000,-6.012500,-50.000000,-53.078118,-389.000000
0.026500,-6.207000,-50.000000,-53.013774,-389.000000
0.027000,-6.401500,-50.000000,-52.958892,-389.000000
0.027500,-6.596000,-50.000000,-52.912344,-389.000000
0.028000,-6.790500,-50.000000,-52.873119,-389.000000
0.028500,-6.716500,50.000000,-52.666078,148.000000
0.029000,-6.642500,50.000000,-49.898139,148.000000
0.029500,-6.837000,-50.000000,-52.446568,-389.000000
0.030000,-7.031500,-50.000000,-52.457583,-389.000000
0.030500,-7.226000,-50.000000,-52.469776,-389.000000
0.031000,-7.420500,-50.000000,-52.482900,-389.000000
0.031500,-7.615000,-50.000000,-52.496737,-389.000000
0.032000,-7.809500,-50.000000,-52.511098,-389.000000
0.032500,-8.004000,-50.000000,-52.525818,-389.000000
0.033000,-8.198500,-50.000000,-52.540755,-389.000000
0.033500,-8.393000,-50.000000,-52.555786,-389.000000
0.034000,-8.587500,-50.000000,-52.570806,-389.000000
0.034500,-8.513500,50.000000,-55.211069,148.000000
0.035000,-8.439500,50.000000,-51.889085,148.000000
0.035500,-8.634000,-50.000000,-52.418278,-389.000000
0.036000,-8.828500,-50.000000,-52.347699,-389.000000
0.036500,-9.023000,-50.000000,-52.277842,-389.000000
0.037000,-9.217500,-50.000000,-52.208477,-389.000000
0.037500,-9.412000,-50.000000,-52.139380,-389.000000
0.038000,-9.606500,-50.000000,-52.198504,-389.000000
0.038500,-9.801000,-50.000000,-52.253420,-389.000000
0.039000,-9.995500,-50.000000,-52.304423,-389.000000
0.039500,-10.190000,-50.000000,-52.351785,-389.000000
0.040000,-10.384500,-50.000000,-52.395765,-389.000000
0.040500,-10.579000,-50.000000,-52.436601,-389.000000
0.041000,-10.773500,-50.000000,-52.474518,-389.000000
0.041500,-10.968000,-50.000000,-52.509724,-389.000000
0.042000,-11.162500,-50.000000,-52.542416,-389.000000
0.042500,-11.357000,-50.000000,-52.572774,-389.000000
0.043000,-11.551500,-50.000000,-52.600969,-389.000000
0.043500,-11.746000,-50.000000,-52.627158,-389.000000
0.044000,-11.940500,-50.000000,-52.651490,-389.000000
0.044500,-12.135000,-50.000000,-52.674100,-389.000000
0.045000,-12.329500,-50.000000,-52.695118,-389.000000
0.045500,-12.524000,-50.000000,-52.714661,-389.000000
0.046000,-12.450000,-50.000000,-52.732840,148.000000
0.046500,-12.376000,-50.000000,-52.749740,148.000000
0.047000,-12.302000,-50.000000,-52.765464,148.000000
0.047500,-12.228000,-50.000000,-52.780103,148.000000
0.048000,-12.154000,-50.000000,-52.793744,148.000000
0.048500,-12.080000,-50.000000,-52.806466,148.000000
0.049000,-12.006000,-50.000000,-52.818345,148.000000
0.049500,-11.932000,-50.000000,-52.829448,148.000000
0.050000,-11.858000,-50.000000,-52.839838,148.000000
0.050500,-11.784000,-50.000000,-52.849574,148.000000
0.051000,-11.710000,-50.000000,-52.858710,148.000000
0.051500,-11.636000,-50.000000,-52.867295,148.000000
0.052000,-11.562000,-50.000000,-52.875376,148.000000
0.052500,-11.488000,-50.000000,-52.882994,148.000000
0.053000,-11.414000,-50.000000,-52.890189,148.000000
0.053500,-11.340000,-50.000000,-52.896997,148.000000
0.054000,-11.266000,-50.000000,-52.903450,148.000000
0.054500,-11.192000,-50.000000,-52.909579,148.000000
0.055000,-11.118000,-50.000000,-52.915412,148.000000
0.055500,-11.044000,-50.000000,-52.920975,148.000000
0.056000,-10.970000,-50.000000,-52.926291,148.000000
0.056500,-10.896000,-50.000000,-52.931381,148.000000
0.057000,-10.822000,-50.000000,-52.936266,148.000000
0.057500,-10.748000,-50.000000,-52.940964,148.000000
0.058000,-10.674000,-50.000000,-52.945490,148.000000
0.058500,-10.600000,-50.000000,-52.949862,148.000000
0.059000,-10.526000,-50.000000,-52.954092,148.000000
0.059500,-10.452000,-50.000000,-52.958192,148.000000
0.060000,-10.378000,-50.000000,-52.962176,148.000000
0.060500,-10.304000,-50.000000,-52.966053,148.000000
0.061000,-10.230000,-50.000000,-52.969832,148.000000
0.061500,-10.156000,-50.000000,-52.973524,148.000000
0.062000,-10.082000,-50.000000,-52.977135,148.000000
0.062500,-10.008000,-50.000000,-52.980673,148.000000
0.063000,-9.934000,-50.000000,-52.984145,148.000000
0.063500,-9.860000,-50.000000,-52.987556,148.000000
0.064000,-9.786000,-50.000000,-52.990913,148.000000
0.064500,-9.712000,-50.000000,-52.994220,148.000000
0.065000,-9.638000,-50.000000,-52.997481,148.000000
0.065500,-9.564000,-50.000000,-53.000701,148.000000
0.066000,-9.490000,-50.000000,-53.003883,148.000000
0.066500,-9.416000,-50.000000,-53.007031,148.000000
0.067000,-9.342000,-50.000000,-53.010147,148.000000
0.067500,-9.268000,-50.000000,-53.013235,148.000000
0.068000,-9.194000,-50.000000,-53.016296,148.000000
0.068500,-9.120000,-50.000000,-53.019334,148.000000
0.069000,-9.046000,-50.000000,-53.022349,148.000000
0.069500,-8.972000,-50.000000,-53.025345,148.000000
0.070000,-8.898000,-50.000000,-53.028321,148.000000
0.070500,-8.824000,-50.000000,-53.031281,148.000000
0.071000,-8.750000,-50.000000,-53.034225,148.000000
0.071500,-8.676000,-50.000000,-53.037154,148.000000
0.072000,-8.602000,-50.000000,-53.040069,148.000000
0.072500,-8.528000,-50.000000,-53.042972,148.000000
0.073000,-8.454000,-50.000000,-53.045863,148.000000
0.073500,-8.380000,-50.000000,-53.048743,148.000000
0.074000,-8.306000,-50.000000,-53.051613,148.000000
0.074500,-8.232000,-50.000000,-53.054473,148.000000
0.075000,-8.158000,-50.000000,-53.057324,148.000000
0.075500,-8.084000,-50.000000,-53.060166,148.000000
0.076000,-8.010000,-50.000000,-53.063000,148.000000
0.076500,-7.936000,-50.000000,-53.065826,148.000000
0.077000,-7.862000,-50.000000,-53.068645,148.000000
0.077500,-7.788000,-50.000000,-53.071457,148.000000
0.078000,-7.714000,-50.000000,-53.074262,148.000000
0.078500,-7.640000,-50.000000,-53.077061,148.000000
0.079000,-7.566000,-50.000000,-53.079854,148.000000
0.079500,-7.492000,-50.000000,-53.082641,148.000000
0.080000,-7.418000,-50.000000,-53.085423,148.000000
0.080500,-7.344000,-50.000000,-53.088199,148.000000
0.081000,-7.270000,-50.000000,-53.090970,148.000000
0.081500,-7.196000,-50.000000,-53.093736,148.000000
0.082000,-7.122000,-50.000000,-53.096498,148.000000
0.082500,-7.048000,-50.000000,-53.099255,148.000000
0.083000,-6.974000,-50.000000,-53.102008,148.000000
0.083500,-6.900000,-50.000000,-53.104756,148.000000
0.084000,-6.826000,-50.000000,-53.107501,148.000000
0.084500,-6.752000,-50.000000,-53.110242,148.000000
0.085000,-6.678000,-50.000000,-53.112979,148.000000
0.085500,-6.604000,-50.000000,-53.115713,148.000000
0.086000,-6.530000,-50.000000,-53.118444,148.000000
0.086500,-6.456000,-50.000000,-53.121172,148.000000
0.087000,-6.382000,-50.000000,-53.123897,148.000000
0.087500,-6.308000,-50.000000,-53.126619,148.000000
0.088000,-6.234000,-50.000000,-53.129338,148.000000
0.088500,-6.160000,-50.000000,-53.132055,148.000000
0.089000,-6.086000,-50.000000,-53.134770,148.000000
0.089500,-6.012000,-50.000000,-53.137483,148.000000
0.090000,-5.938000,-50.000000,-53.140195,148.000000
0.090500,-5.864000,-50.000000,-53.142904,148.000000
0.091000,-5.790000,-50.000000,-53.145612,148.000000
0.091500,-5.716000,-50.000000,-53.148319,148.000000
0.092000,-5.642000,-50.000000,-53.151024,148.000000
0.092500,-5.568000,-50.000000,-53.153729,148.000000
0.093000,-5.494000,-50.000000,-53.156433,148.000000
0.093500,-5.420000,-50.000000,-53.159136,148.000000
0.094000,-5.346000,-50.000000,-53.161838,148.000000
0.094500,-5.272000,-50.000000,-53.164541,148.000000
0.095000,-5.198000,-50.000000,-53.167243,148.000000
0.095500,-5.124000,-50.000000,-53.169946,148.000000
0.096000,-5.050000,-50.000000,-53.172648,148.000000
0.096500,-4.976000,-50.000000,-53.175352,148.000000
0.097000,-4.902000,-50.000000,-53.178055,148.000000
0.097500,-4.828000,-50.000000,-53.180760,148.000000
0.098000,-4.754000,-50.000000,-53.183466,148.000000
0.098500,-4.680000,-50.000000,-53.186172,148.000000
0.099000,-4.606000,-50.000000,-53.188880,148.000000
0.099500,-4.532000,-50.000000,-53.191590,148.000000
0.100000,-4.458000,-50.000000,-53.194301,148.000000
0.100500,-4.384000,-50.000000,-53.197014,148.000000
0.101000,-4.310000,-50.000000,-53.199729,148.000000
0.101500,-4.236000,-50.000000,-53.202447,148.000000
0.102000,-4.162000,-50.000000,-53.205166,148.000000
0.102500,-4.088000,-50.000000,-53.207889,148.000000
0.103000,-4.014000,-50.000000,-53.210614,148.000000
0.103500,-3.940000,-50.000000,-53.213342,148.000000
0.104000,-3.866000,-50.000000,-53.216072,148.000000
0.104500,-3.792000,-50.000000,-53.218807,148.000000
0.105000,-3.718000,-50.000000,-53.221544,148.000000
0.105500,-3.644000,-50.000000,-53.224285,148.000000
0.106000,-3.570000,-50.000000,-53.227030,148.000000
0.106500,-3.496000,-50.000000,-53.229779,148.000000
0.107000,-3.422000,-50.000000,-53.232531,148.000000
0.107500,-3.348000,-50.000000,-53.235288,148.000000
0.108000,-3.274000,-50.000000,-53.238050,148.000000
0.108500,-3.283573,-50.000000,-53.240816,-19.145279
0.109000,-3.298175,-50.000000,-53.243586,-29.205397
0.109500,-3.312364,-50.000000,-53.246359,-28.377188
0.110000,-3.326149,-50.000000,-53.249137,-27.569349
0.110500,-3.339539,-50.000000,-53.251918,-26.781464
0.111000,-3.352546,-50.000000,-53.254703,-26.013128
0.111500,-3.365178,-50.000000,-53.257491,-25.263938
0.112000,-3.377445,-50.000000,-53.260282,-24.533500
0.112500,-3.389355,-50.000000,-53.263076,-23.821424
0.113000,-3.400919,-50.000000,-53.265873,-23.127328
0.113500,-3.412144,-50.000000,-53.268673,-22.450833
0.114000,-3.423040,-50.000000,-53.271476,-21.791569
0.114500,-3.433615,-50.000000,-53.274282,-21.149169
0.115000,-3.443876,-50.000000,-53.277089,-20.523275
0.115500,-3.453833,-50.000000,-53.279900,-19.913531
0.116000,-3.463493,-50.000000,-53.282712,-19.319589
0.116500,-3.472864,-50.000000,-53.285527,-18.741107
0.117000,-3.481952,-50.000000,-53.288344,-18.177748
0.117500,-3.490767,-50.000000,-53.291163,-17.629179
0.118000,-3.499315,-50.000000,-53.293983,-17.095074
0.118500,-3.507602,-50.000000,-53.296806,-16.575113
0.119000,-3.515637,-50.000000,-53.299630,-16.068980
0.119500,-3.523425,-50.000000,-53.302456,-15.576366
0.120000,-3.530973,-50.000000,-53.305283,-15.096965
0.120500,-3.538288,-50.000000,-53.308112,-14.630479
0.121000,-3.545377,-50.000000,-53.310942,-14.176612
0.121500,-3.552244,-50.000000,-53.313774,-13.735077
0.122000,-3.558897,-50.000000,-53.316606,-13.305590
0.122500,-3.565341,-50.000000,-53.319440,-12.887870
0.123000,-3.571582,-50.000000,-53.322275,-12.481646
0.123500,-3.577625,-50.000000,-53.325111,-12.086648
0.124000,-3.583477,-50.000000,-53.327948,-11.702613
0.124500,-3.589141,-50.000000,-53.330786,-11.329281
0.125000,-3.594624,-50.000000,-53.333625,-10.966399
0.125500,-3.599931,-50.000000,-53.336465,-10.613716
0.126000,-3.605067,-50.000000,-53.339305,-10.270990
0.126500,-3.610036,-50.000000,-53.342146,-9.937980
0.127000,-3.614843,-50.000000,-53.344987,-9.614450
0.127500,-3.619493,-50.000000,-53.347830,-9.300171
0.128000,-3.623990,-50.000000,-53.350672,-8.994916
0.128500,-3.628340,-50.000000,-53.353515,-8.698463
0.129000,-3.632545,-50.000000,-53.356359,-8.410595
0.129500,-3.636611,-50.000000,-53.359203,-8.131100
0.130000,-3.640540,-50.000000,-53.362047,-7.859768
0.130500,-3.644339,-50.000000,-53.364892,-7.596396
0.131000,-3.648009,-50.000000,-53.367736,-7.340784
0.131500,-3.651555,-50.000000,-53.370581,-7.092735
0.132000,-3.654981,-50.000000,-53.373426,-6.852057
0.132500,-3.658291,-50.000000,-53.376272,-6.618563
0.133000,-3.661487,-50.000000,-53.379117,-6.392069
0.133500,-3.664573,-50.000000,-53.381963,-6.172394
0.134000,-3.667553,-50.000000,-53.384808,-5.959363
0.134500,-3.670429,-50.000000,-53.387654,-5.752803
0.135000,-3.673205,-50.000000,-53.390499,-5.552545
0.135500,-3.675884,-50.000000,-53.393345,-5.358425
0.136000,-3.678470,-50.000000,-53.396190,-5.170281
0.136500,-3.680964,-50.000000,-53.399035,-4.987955
0.137000,-3.683369,-50.000000,-53.401880,-4.811292
0.137500,-3.685689,-50.000000,-53.404725,-4.640143
0.138000,-3.687927,-50.000000,-53.407570,-4.474360
0.138500,-3.690083,-50.000000,-53.410415,-4.313798
0.139000,-3.692163,-50.000000,-53.413259,-4.158317
0.139500,-3.694166,-50.000000,-53.416103,-4.007778
0.140000,-3.696097,-50.000000,-53.418947,-3.862048
0.140500,-3.697958,-50.000000,-53.421791,-3.720995
0.141000,-3.699750,-50.000000,-53.424634,-3.584491
0.141500,-3.701476,-50.000000,-53.427477,-3.452410
0.142000,-3.703139,-50.000000,-53.430320,-3.324630
0.142500,-3.704739,-50.000000,-53.433162,-3.201031
0.143000,-3.706280,-50.000000,-53.436004,-3.081498
0.143500,-3.707763,-50.000000,-53.438846,-2.965915
0.144000,-3.709190,-50.000000,-53.441687,-2.854173
0.144500,-3.710563,-50.000000,-53.444528,-2.746161
0.145000,-3.711884,-50.000000,-53.447368,-2.641776
0.145500,-3.713154,-50.000000,-53.450208,-2.540913
0.146000,-3.714376,-50.000000,-53.453048,-2.443471
0.146500,-3.715551,-50.000000,-53.455887,-2.349353
0.147000,-3.716680,-50.000000,-53.458726,-2.258463
0.147500,-3.717765,-50.000000,-53.461564,-2.170706
0.148000,-3.718808,-50.000000,-53.464402,-2.085993
0.148500,-3.719811,-50.000000,-53.467239,-2.004235
0.149000,-3.720773,-50.000000,-53.470076,-1.925344
0.149500,-3.721698,-50.000000,-53.472912,-1.849236
0.150000,-3.722586,-50.000000,-53.475748,-1.775830
0.150500,-3.723438,-50.000000,-53.478583,-1.705045
0.151000,-3.724257,-50.000000,-53.481418,-1.636803
0.151500,-3.725042,-50.000000,-53.484252,-1.571028
0.152000,-3.725796,-50.000000,-53.487086,-1.507646
0.152500,-3.726519,-50.000000,-53.489920,-1.446584
0.153000,-3.727213,-50.000000,-53.492752,-1.387774
0.153500,-3.727879,-50.000000,-53.495585,-1.331145
0.154000,-3.728517,-50.000000,-53.498416,-1.276632
0.154500,-3.729129,-50.000000,-53.501248,-1.224170
0.155000,-3.729716,-50.000000,-53.504078,-1.173695
0.155500,-3.730279,-50.000000,-53.506909,-1.125147
0.156000,-3.730818,-50.000000,-53.509738,-1.078465
0.156500,-3.731335,-50.000000,-53.512567,-1.033592
0.157000,-3.731830,-50.000000,-53.515396,-0.990470
0.157500,-3.732304,-50.000000,-53.518224,-0.949045
0.158000,-3.732759,-50.000000,-53.521052,-0.909263
0.158500,-3.733195,-50.000000,-53.523879,-0.871072
0.159000,-3.733612,-50.000000,-53.526705,-0.834422
0.159500,-3.734011,-50.000000,-53.529531,-0.799263
0.160000,-3.734394,-50.000000,-53.532357,-0.765547
0.160500,-3.734761,-50.000000,-53.535182,-0.733229
0.161000,-3.735112,-50.000000,-53.538006,-0.702262
0.161500,-3.735448,-50.000000,-53.540830,-0.672602
0.162000,-3.735770,-50.000000,-53.543654,-0.644208
0.162500,-3.736079,-50.000000,-53.546476,-0.617037
0.163000,-3.736374,-50.000000,-53.549299,-0.591049
0.163500,-3.736657,-50.000000,-53.552121,-0.566206
0.164000,-3.736929,-50.000000,-53.554942,-0.542468
0.164500,-3.737189,-50.000000,-53.557763,-0.519800
0.165000,-3.737438,-50.000000,-53.560583,-0.498165
0.165500,-3.737676,-50.000000,-53.563403,-0.477528
0.166000,-3.737905,-50.000000,-53.566223,-0.457856
0.166500,-3.738125,-50.000000,-53.569042,-0.439115
0.167000,-3.738336,-50.000000,-53.571860,-0.421275
0.167500,-3.738538,-50.000000,-53.574678,-0.404303
0.168000,-3.738732,-50.000000,-53.577496,-0.388171
0.168500,-3.738918,-50.000000,-53.580313,-0.372848
0.169000,-3.739097,-50.000000,-53.583129,-0.358307
0.169500,-3.739270,-50.000000,-53.585946,-0.344521
0.170000,-3.739435,-50.000000,-53.588761,-0.331462
0.170500,-3.739595,-50.000000,-53.591577,-0.319105
0.171000,-3.739749,-50.000000,-53.594391,-0.307425
0.171500,-3.739897,-50.000000,-53.597206,-0.296398
0.172000,-3.740040,-50.000000,-53.600020,-0.286001
0.172500,-3.740178,-50.000000,-53.602833,-0.276210
0.173000,-3.740311,-50.000000,-53.605646,-0.267004
0.173500,-3.740441,-50.000000,-53.608459,-0.258361
0.174000,-3.740566,-50.000000,-53.611271,-0.250260
0.174500,-3.740687,-50.000000,-53.614083,-0.242682
0.175000,-3.740805,-50.000000,-53.616895,-0.235608
0.175500,-3.740919,-50.000000,-53.619706,-0.229017
0.176000,-3.741031,-50.000000,-53.622517,-0.222893
0.176500,-3.741139,-50.000000,-53.625327,-0.217217
0.177000,-3.741245,-50.000000,-53.628137,-0.211972
0.177500,-3.741349,-50.000000,-53.630946,-0.207143
0.178000,-3.741450,-50.000000,-53.633756,-0.202712
0.178500,-3.741550,-50.000000,-53.636565,-0.198665
0.179000,-3.741647,-50.000000,-53.639373,-0.194987
0.179500,-3.741743,-50.000000,-53.642181,-0.191662
0.180000,-3.741837,-50.000000,-53.644989,-0.188678
0.180500,-3.741930,-50.000000,-53.647797,-0.186020
0.181000,-3.742022,-50.000000,-53.650604,-0.183676
0.181500,-3.742113,-50.000000,-53.653411,-0.181632
0.182000,-3.742203,-50.000000,-53.656218,-0.179877
0.182500,-3.742292,-50.000000,-53.659024,-0.178399
0.183000,-3.742381,-50.000000,-53.661830,-0.177186
0.183500,-3.742469,-50.000000,-53.664636,-0.176227
0.184000,-3.742557,-50.000000,-53.667442,-0.175512
0.184500,-3.742644,-50.000000,-53.670247,-0.175030
0.185000,-3.742732,-50.000000,-53.673052,-0.174772
0.185500,-3.742819,-50.000000,-53.675856,-0.174728
0.186000,-3.742906,-50.000000,-53.678661,-0.174888
0.186500,-3.742994,-50.000000,-53.681465,-0.175243
0.187000,-3.743082,-50.000000,-53.684269,-0.175786
0.187500,-3.743170,-50.000000,-53.687073,-0.176507
0.188000,-3.743259,-50.000000,-53.689876,-0.177399
0.188500,-3.743348,-50.000000,-53.692680,-0.178454
0.189000,-3.743438,-50.000000,-53.695483,-0.179665
0.189500,-3.743528,-50.000000,-53.698286,-0.181023
0.190000,-3.743620,-50.000000,-53.701089,-0.182523
0.190500,-3.743712,-50.000000,-53.703891,-0.184157
0.191000,-3.743805,-50.000000,-53.706694,-0.185920
