time(s),ankle_angle(deg),ankle_velocity(deg/s)
0.000000,-1.718873,17.188734
0.000500,-1.712475,12.797015
0.001000,-1.706148,12.654509
0.001500,-1.699885,12.525577
0.002000,-1.693680,12.410582
0.002500,-1.687525,12.309808
0.003000,-1.681413,12.223474
0.003500,-1.675337,12.151733
0.004000,-1.669290,12.094684
0.004500,-1.663264,12.052370
0.005000,-1.657251,12.024787
0.005500,-1.651245,12.011888
0.006000,-1.645238,12.013584
0.006500,-1.639224,12.029754
0.007000,-1.633193,12.060241
0.007500,-1.627141,12.104861
0.008000,-1.621059,12.163404
0.008500,-1.614941,12.235638
0.009000,-1.608781,12.321310
0.009500,-1.602571,12.420149
0.010000,-1.596305,12.531870
0.010500,-1.589977,12.656175
0.011000,-1.583580,12.792754
0.011500,-1.577110,12.941289
0.012000,-1.570559,13.101453
0.012500,-1.563922,13.272916
0.013000,-1.557195,13.455341
0.013500,-1.550371,13.648388
0.014000,-1.543445,13.851717
0.014500,-1.536412,14.064987
0.015000,-1.529268,14.287856
0.015500,-1.522008,14.519983
0.016000,-1.514628,14.761031
0.016500,-1.507122,15.010665
0.017000,-1.499488,15.268552
0.017500,-1.491721,15.534365
0.018000,-1.483817,15.807781
0.018500,-1.475773,16.088482
0.019000,-1.467585,16.376155
0.019500,-1.459250,16.670494
0.020000,-1.450764,16.971198
0.020500,-1.442125,17.277974
0.021000,-1.433330,17.590533
0.021500,-1.424375,17.908596
0.022000,-1.415259,18.231889
0.022500,-1.405979,18.560147
0.023000,-1.396533,18.893109
0.023500,-1.386918,19.230525
0.024000,-1.377132,19.572150
0.024500,-1.367173,19.917747
0.025000,-1.357039,20.267088
0.025500,-1.346729,20.619949
0.026000,-1.336241,20.976117
0.026500,-1.325573,21.335383
0.027000,-1.314725,21.697548
0.027500,-1.303693,22.062418
0.028000,-1.292478,22.429807
0.028500,-1.281079,22.799536
0.029000,-1.269493,23.171432
0.029500,-1.257720,23.545330
0.030000,-1.245760,23.921070
0.030500,-1.233611,24.298501
0.031000,-1.221272,24.677475
0.031500,-1.208743,25.057852
0.032000,-1.196023,25.439498
0.032500,-1.183112,25.822284
0.033000,-1.170009,26.206089
0.033500,-1.156714,26.590794
0.034000,-1.143225,26.976288
0.034500,-1.129544,27.362464
0.035000,-1.115670,27.749221
0.035500,-1.101601,28.136463
0.036000,-1.087339,28.524098
0.036500,-1.072883,28.912038
0.037000,-1.058233,29.300202
0.037500,-1.043389,29.688510
0.038000,-1.028350,30.076888
0.038500,-1.013118,30.465267
0.039000,-0.997691,30.853580
0.039500,-0.982070,31.241765
0.040000,-0.966255,31.629762
0.040500,-0.950247,32.017517
0.041000,-0.934044,32.404976
0.041500,-0.917648,32.792091
0.042000,-0.901059,33.178816
0.042500,-0.884276,33.565107
0.043000,-0.867301,33.950925
0.043500,-0.850132,34.336232
0.044000,-0.832772,34.720992
0.044500,-0.815219,35.105172
0.045000,-0.797475,35.488744
0.045500,-0.779539,35.871678
0.046000,-0.761412,36.253948
0.046500,-0.743094,36.635530
0.047000,-0.724586,37.016402
0.047500,-0.705888,37.396544
0.048000,-0.687000,37.775936
0.048500,-0.667923,38.154563
0.049000,-0.648656,38.532408
0.049500,-0.629224,38.864278
0.050000,-0.609652,39.144097
0.050500,-0.589965,39.373787
0.051000,-0.570188,39.555251
0.051500,-0.550343,39.690368
0.052000,-0.530452,39.780991
0.052500,-0.510538,39.828947
0.053000,-0.490620,39.836034
0.053500,-0.470718,39.804017
0.054000,-0.450850,39.734628
0.054500,-0.431036,39.629565
0.055000,-0.411290,39.490491
0.055500,-0.391631,39.319030
0.056000,-0.372072,39.116766
0.056500,-0.352607,38.930101
0.057000,-0.333224,38.766666
0.057500,-0.313915,38.618336
0.058000,-0.294675,38.479567
0.058500,-0.275502,38.346589
0.059000,-0.256393,38.216856
0.059500,-0.237349,38.088662
0.060000,-0.218369,37.960874
0.060500,-0.199452,37.832758
0.061000,-0.180600,37.703848
0.061500,-0.161813,37.573862
0.062000,-0.143092,37.442643
0.062500,-0.124437,37.310118
0.063000,-0.105849,37.176271
0.063500,-0.087328,37.041123
0.064000,-0.068876,36.904720
0.064500,-0.050492,36.767123
0.065000,-0.032178,36.628401
0.065500,-0.013934,36.488631
0.066000,0.004240,36.347891
0.066500,0.022343,36.206259
0.067000,0.040375,36.063813
0.067500,0.058336,35.920629
0.068000,0.076224,35.776783
0.068500,0.094040,35.632346
0.069000,0.111784,35.487388
0.069500,0.129455,35.341977
0.070000,0.147053,35.196176
0.070500,0.164578,35.050047
0.071000,0.182030,34.903651
0.071500,0.199408,34.757043
0.072000,0.216713,34.610278
0.072500,0.233945,34.463407
0.073000,0.251103,34.316481
0.073500,0.268188,34.169547
0.074000,0.285199,34.022649
0.074500,0.302137,33.875830
0.075000,0.319002,33.729132
0.075500,0.335793,33.582593
0.076000,0.352511,33.436251
0.076500,0.369156,33.290140
0.077000,0.385729,33.144295
0.077500,0.402228,32.998747
0.078000,0.418655,32.853526
0.078500,0.435009,32.708660
0.079000,0.451291,32.564178
0.079500,0.467501,32.420104
0.080000,0.483639,32.276462
0.080500,0.499706,32.133276
0.081000,0.515701,31.990568
0.081500,0.531625,31.848356
0.082000,0.547479,31.706662
0.082500,0.563262,31.565502
0.083000,0.578974,31.424893
0.083500,0.594616,31.284852
0.084000,0.610189,31.145393
0.084500,0.625692,31.006530
0.085000,0.641127,30.868276
0.085500,0.656492,30.730643
0.086000,0.671789,30.593643
0.086500,0.687017,30.457284
0.087000,0.702178,30.321578
0.087500,0.717271,30.186532
0.088000,0.732297,30.052156
0.088500,0.747257,29.918455
0.089000,0.762149,29.785438
0.089500,0.776976,29.653109
0.090000,0.791737,29.521475
0.090500,0.806432,29.390540
0.091000,0.821062,29.260309
0.091500,0.835627,29.130785
0.092000,0.850128,29.001973
0.092500,0.864565,28.873873
0.093000,0.878939,28.746490
0.093500,0.893249,28.619824
0.094000,0.907495,28.493878
0.094500,0.921680,28.368652
0.095000,0.935802,28.244147
0.095500,0.949862,28.120363
0.096000,0.963861,27.997301
0.096500,0.977798,27.874961
0.097000,0.991675,27.753340
0.097500,1.005491,27.632440
0.098000,1.019247,27.512258
0.098500,1.032944,27.392793
0.099000,1.046581,27.274043
0.099500,1.060159,27.156006
0.100000,1.073678,27.038681
0.100500,1.087139,26.922065
0.101000,1.100542,26.806154
0.101500,1.113888,26.690948
0.102000,1.127176,26.576442
0.102500,1.140407,26.462633
0.103000,1.153582,26.349519
0.103500,1.166700,26.237095
0.104000,1.179763,26.125359
0.104500,1.192770,26.014307
0.105000,1.205722,25.903934
0.105500,1.218619,25.794238
0.106000,1.231462,25.685214
0.106500,1.244250,25.576857
0.107000,1.256985,25.469165
0.107500,1.269666,25.362132
0.108000,1.282294,25.255755
0.108500,1.294869,25.150028
0.109000,1.307391,25.044948
0.109500,1.319862,24.940510
0.110000,1.332280,24.836709
0.110500,1.344647,24.733542
0.111000,1.356962,24.631002
0.111500,1.369227,24.529086
0.112000,1.381441,24.427789
0.112500,1.393604,24.327107
0.113000,1.405718,24.227033
0.113500,1.417782,24.127565
0.114000,1.429796,24.028696
0.114500,1.441761,23.930423
0.115000,1.453677,23.832740
0.115500,1.465545,23.735643
0.116000,1.477365,23.639126
0.116500,1.489136,23.543186
0.117000,1.500860,23.447816
0.117500,1.512537,23.353014
0.118000,1.524166,23.258773
0.118500,1.535749,23.165089
0.119000,1.547285,23.071957
0.119500,1.558774,22.979373
0.120000,1.570218,22.887331
0.120500,1.581616,22.795828
0.121000,1.592968,22.704858
0.121500,1.604276,22.614417
0.122000,1.615538,22.524501
0.122500,1.626755,22.435104
0.123000,1.637929,22.346222
0.123500,1.649058,22.257850
0.124000,1.660143,22.169985
0.124500,1.671184,22.082621
0.125000,1.682182,21.995755
0.125500,1.693136,21.909381
0.126000,1.704048,21.823496
0.126500,1.714917,21.738094
0.127000,1.725744,21.653173
0.127500,1.736528,21.568727
0.128000,1.747271,21.484752
0.128500,1.757971,21.401244
0.129000,1.768630,21.318200
0.129500,1.779248,21.235614
0.130000,1.789825,21.153482
0.130500,1.800361,21.071802
0.131000,1.810856,20.990568
0.131500,1.821311,20.909777
0.132000,1.831726,20.829424
0.132500,1.842100,20.749507
0.133000,1.852435,20.670020
0.133500,1.862731,20.590961
0.134000,1.872987,20.512326
0.134500,1.883204,20.434110
0.135000,1.893382,20.356310
0.135500,1.903522,20.278922
0.136000,1.913623,20.201943
0.136500,1.923685,20.125370
0.137000,1.933710,20.049198
0.137500,1.943697,19.973424
0.138000,1.953646,19.898045
0.138500,1.963557,19.823057
0.139000,1.973431,19.748457
0.139500,1.983269,19.674242
0.140000,1.993069,19.600408
0.140500,2.002832,19.526952
0.141000,2.012559,19.453871
0.141500,2.022250,19.381161
0.142000,2.031904,19.308819
0.142500,2.041523,19.236843
0.143000,2.051105,19.165229
0.143500,2.060652,19.093974
0.144000,2.070164,19.023076
0.144500,2.079640,18.952530
0.145000,2.089081,18.882334
0.145500,2.098487,18.812486
0.146000,2.107859,18.742982
0.146500,2.117196,18.673820
0.147000,2.126498,18.604996
0.147500,2.135767,18.536509
0.148000,2.145001,18.468354
0.148500,2.154201,18.400530
0.149000,2.163367,18.333034
0.149500,2.172500,18.265863
0.150000,2.181600,18.199015
0.150500,2.190666,18.132486
0.151000,2.199699,18.066275
0.151500,2.208699,18.000378
0.152000,2.217667,17.934794
0.152500,2.226602,17.869520
0.153000,2.235504,17.804553
0.153500,2.244374,17.739891
0.154000,2.253212,17.675532
0.154500,2.262017,17.611473
0.155000,2.270791,17.547712
0.155500,2.279533,17.484247
0.156000,2.288244,17.421075
0.156500,2.296923,17.358194
0.157000,2.305571,17.295602
0.157500,2.314187,17.233297
0.158000,2.322773,17.171276
0.158500,2.331328,17.109537
0.159000,2.339852,17.048079
0.159500,2.348345,16.986899
0.160000,2.356808,16.925994
0.160500,2.365241,16.865364
0.161000,2.373644,16.805006
0.161500,2.382016,16.744918
0.162000,2.390359,16.685097
0.162500,2.398671,16.625543
0.163000,2.406954,16.566253
0.163500,2.415208,16.507224
0.164000,2.423432,16.448456
0.164500,2.431627,16.389947
0.165000,2.439793,16.331694
0.165500,2.447930,16.273695
0.166000,2.456038,16.215949
0.166500,2.464117,16.158455
0.167000,2.472168,16.101209
0.167500,2.480190,16.044211
0.168000,2.488184,15.987459
0.168500,2.496149,15.930950
0.169000,2.504086,15.874685
0.169500,2.511996,15.818659
0.170000,2.519877,15.762873
0.170500,2.527731,15.707324
0.171000,2.535557,15.652010
0.171500,2.543355,15.596931
0.172000,2.551126,15.542084
0.172500,2.558870,15.487467
0.173000,2.566587,15.433080
0.173500,2.574276,15.378921
0.174000,2.581939,15.324988
0.174500,2.589574,15.271279
0.175000,2.597183,15.217794
0.175500,2.604765,15.164530
0.176000,2.612321,15.111487
0.176500,2.619850,15.058662
0.177000,2.627353,15.006054
0.177500,2.634830,14.953662
0.178000,2.642281,14.901485
0.178500,2.649706,14.849520
0.179000,2.657105,14.797767
0.179500,2.664478,14.746225
0.180000,2.671825,14.694891
0.180500,2.679147,14.643764
0.181000,2.686444,14.592844
0.181500,2.693715,14.542128
0.182000,2.700960,14.491616
0.182500,2.708181,14.441306
0.183000,2.715377,14.391197
0.183500,2.722547,14.341287
0.184000,2.729693,14.291575
0.184500,2.736814,14.242061
0.185000,2.743910,14.192742
0.185500,2.750982,14.143618
0.186000,2.758030,14.094688
0.186500,2.765053,14.045949
0.187000,2.772051,13.997401
0.187500,2.779026,13.949043
0.188000,2.785976,13.900873
0.188500,2.792903,13.852891
0.189000,2.799805,13.805094
0.189500,2.806684,13.757483
0.190000,2.813539,13.710056
0.190500,2.820370,13.662811
0.191000,2.827178,13.615748
0.191500,2.833963,13.568865
0.192000,2.840724,13.522161
0.192500,2.847462,13.475636
0.193000,2.854176,13.429288
0.193500,2.860868,13.383116
0.194000,2.867536,13.337119
0.194500,2.874182,13.291296
0.195000,2.880805,13.245646
0.195500,2.887405,13.200167
0.196000,2.893982,13.154860
0.196500,2.900537,13.109722
0.197000,2.907070,13.064753
0.197500,2.913580,13.019951
0.198000,2.920067,12.975316
0.198500,2.926533,12.930847
0.199000,2.932976,12.886543
0.199500,2.939397,12.842402
0.200000,2.945796,12.798424
0.200500,2.952174,12.754608
0.201000,2.958529,12.710953
0.201500,2.964863,12.667457
0.202000,2.971175,12.624120
0.202500,2.977465,12.580942
0.203000,2.983734,12.537920
0.203500,2.989982,12.495054
0.204000,2.996208,12.452344
0.204500,3.002413,12.409788
0.205000,3.008597,12.367385
0.205500,3.014759,12.325135
0.206000,3.020901,12.283036
0.206500,3.027021,12.241088
0.207000,3.033121,12.199289
0.207500,3.039200,12.157640
0.208000,3.045258,12.116138
0.208500,3.051295,12.074784
0.209000,3.057312,12.033576
0.209500,3.063308,11.992514
0.210000,3.069284,11.951596
0.210500,3.075239,11.910822
0.211000,3.081175,11.870191
0.211500,3.087089,11.829702
0.212000,3.092984,11.789355
0.212500,3.098859,11.749148
0.213000,3.104713,11.709080
0.213500,3.110548,11.669152
0.214000,3.116362,11.629362
0.214500,3.122157,11.589709
0.215000,3.127932,11.550192
0.215500,3.133688,11.510811
0.216000,3.139424,11.471565
0.216500,3.145140,11.432453
0.217000,3.150837,11.393475
0.217500,3.156514,11.354630
0.218000,3.162172,11.315916
0.218500,3.167811,11.277333
0.219000,3.173430,11.238881
0.219500,3.179030,11.200558
0.220000,3.184611,11.162365
0.220500,3.190174,11.124299
0.221000,3.195717,11.086361
0.221500,3.201241,11.048550
0.222000,3.206746,11.010865
0.222500,3.212233,10.973305
0.223000,3.217701,10.935870
0.223500,3.223150,10.898558
0.224000,3.228581,10.861370
0.224500,3.233993,10.824305
0.225000,3.239387,10.787361
0.225500,3.244762,10.750538
0.226000,3.250119,10.713836
0.226500,3.255458,10.677254
0.227000,3.260778,10.640790
0.227500,3.266080,10.604446
0.228000,3.271364,10.568219
0.228500,3.276630,10.532109
0.229000,3.281878,10.496115
0.229500,3.287109,10.460238
0.230000,3.292321,10.424475
0.230500,3.297515,10.388827
0.231000,3.302692,10.353293
0.231500,3.307851,10.317873
0.232000,3.312992,10.282565
0.232500,3.318116,10.247369
0.233000,3.323222,10.212284
0.233500,3.328311,10.177310
0.234000,3.333382,10.142446
0.234500,3.338436,10.107692
0.235000,3.343472,10.073047
0.235500,3.348491,10.038510
0.236000,3.353493,10.004081
0.236500,3.358478,9.969759
0.237000,3.363446,9.935544
0.237500,3.368397,9.901435
0.238000,3.373331,9.867431
0.238500,3.378247,9.833532
0.239000,3.383147,9.799737
0.239500,3.388030,9.766045
0.240000,3.392896,9.732457
0.240500,3.397746,9.698972
0.241000,3.402579,9.665588
0.241500,3.407395,9.632306
0.242000,3.412194,9.599125
0.242500,3.416977,9.566044
0.243000,3.421744,9.533062
0.243500,3.426494,9.500180
0.244000,3.431228,9.467397
0.244500,3.435945,9.434712
0.245000,3.440646,9.402124
0.245500,3.445331,9.369634
0.246000,3.450000,9.337240
0.246500,3.454652,9.304942
0.247000,3.459288,9.272740
0.247500,3.463909,9.240632
0.248000,3.468513,9.208620
0.248500,3.473101,9.176701
0.249000,3.477674,9.144875
0.249500,3.482230,9.113143
0.250000,3.486771,9.081503
0.250500,3.491296,9.049955
0.251000,3.495805,9.018498
0.251500,3.500299,8.987132
0.252000,3.504777,8.955857
0.252500,3.509239,8.924672
0.253000,3.513686,8.893576
0.253500,3.518117,8.862570
0.254000,3.522533,8.831652
0.254500,3.526934,8.800822
0.255000,3.531319,8.770079
0.255500,3.535688,8.739424
0.256000,3.540043,8.708855
0.256500,3.544382,8.678373
0.257000,3.548706,8.647976
0.257500,3.553015,8.617665
0.258000,3.557308,8.587439
0.258500,3.561587,8.557297
0.259000,3.565851,8.527238
0.259500,3.570099,8.497264
0.260000,3.574333,8.467372
0.260500,3.578552,8.437563
0.261000,3.582756,8.407837
0.261500,3.586945,8.378191
0.262000,3.591119,8.348628
0.262500,3.595279,8.319145
0.263000,3.599424,8.289742
0.263500,3.603554,8.260420
0.264000,3.607669,8.231177
0.264500,3.611770,8.202014
0.265000,3.615857,8.172929
0.265500,3.619929,8.143922
0.266000,3.623986,8.114994
0.266500,3.628029,8.086143
0.267000,3.632058,8.057369
0.267500,3.636072,8.028672
0.268000,3.640072,8.000051
0.268500,3.644058,7.971506
0.269000,3.648030,7.943037
0.269500,3.651987,7.914643
0.270000,3.655930,7.886323
0.270500,3.659859,7.858078
0.271000,3.663774,7.829907
0.271500,3.667675,7.801810
0.272000,3.671562,7.773785
0.272500,3.675435,7.745834
0.273000,3.679294,7.717955
0.273500,3.683139,7.690148
0.274000,3.686970,7.662413
0.274500,3.690788,7.634749
0.275000,3.694591,7.607156
0.275500,3.698381,7.579633
0.276000,3.702157,7.552181
0.276500,3.705919,7.524799
0.277000,3.709668,7.497486
0.277500,3.713403,7.470242
0.278000,3.717125,7.443068
0.278500,3.720833,7.415961
0.279000,3.724527,7.388923
0.279500,3.728208,7.361952
0.280000,3.731876,7.335049
0.280500,3.735530,7.308213
0.281000,3.739171,7.281444
0.281500,3.742798,7.254741
0.282000,3.746412,7.228104
0.282500,3.750013,7.201533
0.283000,3.753600,7.175027
0.283500,3.757175,7.148586
0.284000,3.760736,7.122210
0.284500,3.764284,7.095898
0.285000,3.767819,7.069651
0.285500,3.771340,7.043467
0.286000,3.774849,7.017346
0.286500,3.778345,6.991289
0.287000,3.781827,6.965294
0.287500,3.785297,6.939362
0.288000,3.788754,6.913492
0.288500,3.792197,6.887684
0.289000,3.795628,6.861938
0.289500,3.799047,6.836252
0.290000,3.802452,6.810628
0.290500,3.805844,6.785064
0.291000,3.809224,6.759560
0.291500,3.812591,6.734117
0.292000,3.815946,6.708733
0.292500,3.819287,6.683409
0.293000,3.822616,6.658143
0.293500,3.825933,6.632937
0.294000,3.829237,6.607789
0.294500,3.832528,6.582699
0.295000,3.835807,6.557668
0.295500,3.839073,6.532694
0.296000,3.842327,6.507777
0.296500,3.845569,6.482918
0.297000,3.848798,6.458115
0.297500,3.852014,6.433369
0.298000,3.855219,6.408679
0.298500,3.858411,6.384045
0.299000,3.861590,6.359467
0.299500,3.864758,6.334945
0.300000,3.867913,6.310477
0.300500,3.871056,6.286065
0.301000,3.874187,6.261707
0.301500,3.877306,6.237403
0.302000,3.880412,6.213154
0.302500,3.883507,6.188959
0.303000,3.886589,6.164817
0.303500,3.889660,6.140728
0.304000,3.892718,6.116693
0.304500,3.895764,6.092710
0.305000,3.898799,6.068780
0.305500,3.901821,6.044903
0.306000,3.904832,6.021077
0.306500,3.907830,5.997303
0.307000,3.910817,5.973581
0.307500,3.913792,5.949910
0.308000,3.916755,5.926290
0.308500,3.919707,5.902722
0.309000,3.922646,5.879203
0.309500,3.925574,5.855735
0.310000,3.928490,5.832318
0.310500,3.931395,5.808950
0.311000,3.934288,5.785632
0.311500,3.937169,5.762363
0.312000,3.940038,5.739143
0.312500,3.942896,5.715973
0.313000,3.945743,5.692851
0.313500,3.948578,5.669777
0.314000,3.951401,5.646752
0.314500,3.954213,5.623775
0.315000,3.957013,5.600846
0.315500,3.959802,5.577964
0.316000,3.962580,5.555130
0.316500,3.965346,5.532343
0.317000,3.968101,5.509603
0.317500,3.970844,5.486910
0.318000,3.973576,5.464263
0.318500,3.976297,5.441662
0.319000,3.979007,5.419108
0.319500,3.981705,5.396600
0.320000,3.984392,5.374137
0.320500,3.987068,5.351719
0.321000,3.989733,5.329347
0.321500,3.992386,5.307020
0.322000,3.995029,5.284738
0.322500,3.997660,5.262500
0.323000,4.000280,5.240307
0.323500,4.002889,5.218158
0.324000,4.005487,5.196053
0.324500,4.008074,5.173992
0.325000,4.010650,5.151975
0.325500,4.013215,5.130001
0.326000,4.015769,5.108070
0.326500,4.018312,5.086183
0.327000,4.020844,5.064338
0.327500,4.023366,5.042536
0.328000,4.025876,5.020776
0.328500,4.028375,4.999059
0.329000,4.030864,4.977384
0.329500,4.033342,4.955751
0.330000,4.035809,4.934159
0.330500,4.038265,4.912609
0.331000,4.040711,4.891101
0.331500,4.043146,4.869633
0.332000,4.045570,4.848207
0.332500,4.047983,4.826821
0.333000,4.050386,4.805476
0.333500,4.052778,4.784172
0.334000,4.055160,4.762908
0.334500,4.057530,4.741684
0.335000,4.059891,4.720500
0.335500,4.062240,4.699356
0.336000,4.064579,4.678251
0.336500,4.066908,4.657186
0.337000,4.069226,4.636160
0.337500,4.071534,4.615173
0.338000,4.073831,4.594225
0.338500,4.076118,4.573316
0.339000,4.078394,4.552446
0.339500,4.080660,4.531614
0.340000,4.082915,4.510820
0.340500,4.085160,4.490064
0.341000,4.087395,4.469346
0.341500,4.089619,4.448667
0.342000,4.091833,4.428024
0.342500,4.094037,4.407419
0.343000,4.096230,4.386852
0.343500,4.098413,4.366322
0.344000,4.100586,4.345828
0.344500,4.102749,4.325372
0.345000,4.104901,4.304952
0.345500,4.107044,4.284569
0.346000,4.109176,4.264222
0.346500,4.111298,4.243911
0.347000,4.113410,4.223637
0.347500,4.115511,4.203398
0.348000,4.117603,4.183196
0.348500,4.119684,4.163029
0.349000,4.121756,4.142897
0.349500,4.123817,4.122801
0.350000,4.125869,4.102740
0.350500,4.127910,4.082714
0.351000,4.129941,4.062723
0.351500,4.131963,4.042767
0.352000,4.133974,4.022846
0.352500,4.135976,4.002959
0.353000,4.137967,3.983106
0.353500,4.139949,3.963288
0.354000,4.141921,3.943504
0.354500,4.143882,3.923754
0.355000,4.145834,3.904037
0.355500,4.147777,3.884354
0.356000,4.149709,3.864705
0.356500,4.151632,3.845090
0.357000,4.153544,3.825507
0.357500,4.155447,3.805958
